# SSDC Cosmic Ray Database tools.asdc.asi.it/CosmicRays
# https://ui.adsabs.harvard.edu/abs/2018PhRvL.120b1101A
# R [GV] flux [m-2 s-1 sr-1 GV-1] total_error_low total_error_high
2.03099e+00   4.13000e-01   2.33497e-02   2.33497e-02   
2.27076e+00   4.25400e-01   2.13582e-02   2.13582e-02   
2.53056e+00   4.22300e-01   1.90196e-02   1.90196e-02   
2.81508e+00   3.93600e-01   1.60312e-02   1.60312e-02   
3.12495e+00   3.57000e-01   1.32556e-02   1.32556e-02   
3.45955e+00   3.18400e-01   1.08775e-02   1.08775e-02   
3.82418e+00   2.79500e-01   8.86387e-03   8.86387e-03   
4.21886e+00   2.41100e-01   7.17300e-03   7.17300e-03   
4.64829e+00   2.02500e-01   5.70324e-03   5.70324e-03   
5.11777e+00   1.71500e-01   4.61254e-03   4.61254e-03   
5.62731e+00   1.41700e-01   3.66923e-03   3.66923e-03   
6.17690e+00   1.16500e-01   2.92736e-03   2.92736e-03   
6.77126e+00   9.52800e-02   2.33732e-03   2.33732e-03   
7.41568e+00   7.71000e-02   1.85576e-03   1.85576e-03   
8.11015e+00   6.24000e-02   1.47969e-03   1.47969e-03   
8.85942e+00   5.04700e-02   1.18404e-03   1.18404e-03   
9.66876e+00   4.05700e-02   9.43061e-04   9.43061e-04   
1.05382e+01   3.28200e-02   7.58041e-04   7.58041e-04   
1.14866e+01   2.60600e-02   5.98771e-04   5.98771e-04   
1.24877e+01   2.10500e-02   4.82500e-04   4.82500e-04   
1.35362e+01   1.68800e-02   3.86110e-04   3.86110e-04   
1.46849e+01   1.35600e-02   3.09731e-04   3.09731e-04   
1.59337e+01   1.09100e-02   2.49323e-04   2.49323e-04   
1.72825e+01   8.59600e-03   1.96568e-04   1.96568e-04   
1.87315e+01   6.97500e-03   1.59759e-04   1.59759e-04   
2.02806e+01   5.53700e-03   1.27061e-04   1.27061e-04   
2.19297e+01   4.40800e-03   1.01379e-04   1.01379e-04   
2.37266e+01   3.51300e-03   8.09175e-05   8.09175e-05   
2.56760e+01   2.81100e-03   6.49942e-05   6.49942e-05   
2.77255e+01   2.27100e-03   5.27141e-05   5.27141e-05   
2.99228e+01   1.76300e-03   4.11505e-05   4.11505e-05   
3.22725e+01   1.40500e-03   3.30447e-05   3.30447e-05   
3.47700e+01   1.14000e-03   2.69960e-05   2.69960e-05   
3.74678e+01   9.03000e-04   2.15907e-05   2.15907e-05   
4.03656e+01   7.06500e-04   1.71019e-05   1.71019e-05   
4.34637e+01   5.71500e-04   1.40044e-05   1.40044e-05   
4.67619e+01   4.67000e-04   1.15954e-05   1.15954e-05   
5.03081e+01   3.62600e-04   9.15197e-06   9.15197e-06   
5.41067e+01   2.93700e-04   7.54675e-06   7.54675e-06   
5.81533e+01   2.34200e-04   6.13438e-06   6.13438e-06   
6.25001e+01   1.85700e-04   4.97659e-06   4.97659e-06   
6.71949e+01   1.47900e-04   4.05376e-06   4.05376e-06   
7.22423e+01   1.18200e-04   3.33127e-06   3.33127e-06   
7.76378e+01   9.65400e-05   2.78785e-06   2.78785e-06   
8.34335e+01   7.69900e-05   2.29551e-06   2.29551e-06   
8.96774e+01   6.29900e-05   1.92938e-06   1.92938e-06   
9.64217e+01   4.85400e-05   1.55257e-06   1.55257e-06   
1.03905e+02   3.78700e-05   1.24892e-06   1.24892e-06   
1.11912e+02   2.96500e-05   1.04322e-06   1.04322e-06   
1.20396e+02   2.52900e-05   9.04387e-07   9.04387e-07   
1.29881e+02   1.88300e-05   7.13087e-07   7.13087e-07   
1.40842e+02   1.48000e-05   5.73957e-07   5.73957e-07   
1.53330e+02   1.08200e-05   4.52857e-07   4.52857e-07   
1.67293e+02   8.73300e-06   3.77084e-07   3.77084e-07   
1.83257e+02   7.00600e-06   3.15040e-07   3.15040e-07   
2.01224e+02   5.07800e-06   2.47223e-07   2.47223e-07   
2.21664e+02   3.80500e-06   1.96774e-07   1.96774e-07   
2.45576e+02   2.85800e-06   1.56271e-07   1.56271e-07   
2.74426e+02   1.85500e-06   1.11514e-07   1.11514e-07   
3.09744e+02   1.42300e-06   8.95236e-08   8.95236e-08   
3.53455e+02   8.86900e-07   6.23266e-08   6.23266e-08   
4.08553e+02   6.01400e-07   4.60364e-08   4.60364e-08   
4.80744e+02   3.86600e-07   3.23552e-08   3.23552e-08   
5.87746e+02   2.31300e-07   2.09750e-08   2.09750e-08   
7.60270e+02   1.00800e-07   1.11906e-08   1.11906e-08   
1.06486e+03   4.41900e-08   6.02589e-09   6.02589e-09   
2.02084e+03   5.27200e-09   1.55285e-09   1.55285e-09   
