# credit: SSDC Cosmic Ray Database tools.asdc.asi.it/CosmicRays
# T [GeV] - flux [] - flux_error_low [] - flux_error_high [] 
1.11163e+00   3.12030e+01   1.33714e+00   1.33714e+00   
1.27578e+00   2.66980e+01   1.14328e+00   1.14328e+00   
1.46546e+00   2.30450e+01   9.86211e-01   9.86211e-01   
1.67976e+00   1.88330e+01   8.05484e-01   8.05484e-01   
1.92872e+00   1.50272e+01   6.42851e-01   6.42851e-01   
2.21780e+00   1.19434e+01   5.10967e-01   5.10967e-01   
2.54700e+00   8.96520e+00   3.83897e-01   3.83897e-01   
2.92089e+00   6.66880e+00   2.85770e-01   2.85770e-01   
3.35405e+00   4.76260e+00   2.04464e-01   2.04464e-01   
3.85288e+00   3.39720e+00   1.46052e-01   1.46052e-01   
4.40273e+00   2.30280e+00   9.93083e-02   9.93083e-02   
5.03382e+00   1.55920e+00   6.75228e-02   6.75228e-02   
5.82690e+00   1.06440e+00   4.62431e-02   4.62431e-02   
6.72999e+00   7.23300e-01   3.15837e-02   3.15837e-02   
7.67834e+00   4.67500e-01   2.05749e-02   2.05749e-02   
8.81814e+00   3.05500e-01   1.35699e-02   1.35699e-02   
1.01679e+01   1.90780e-01   8.59009e-03   8.59009e-03   
1.16635e+01   1.26210e-01   5.76036e-03   5.76036e-03   
1.33597e+01   7.93600e-02   3.69283e-03   3.69283e-03   
1.53021e+01   5.20400e-02   2.46418e-03   2.46418e-03   
1.75909e+01   3.26010e-02   1.58329e-03   1.58329e-03   
2.02356e+01   2.07570e-02   1.04262e-03   1.04262e-03   
2.32267e+01   1.26160e-02   6.71804e-04   6.71804e-04   
2.66646e+01   8.88900e-03   4.94616e-04   4.94616e-04   
3.05996e+01   5.21000e-03   3.18944e-04   3.18944e-04   
3.51309e+01   3.73600e-03   2.41671e-04   2.41671e-04   
4.03663e+01   2.15100e-03   1.58679e-04   1.58679e-04   
4.63476e+01   1.44700e-03   1.17215e-04   1.17215e-04   
5.31834e+01   1.03810e-03   9.07965e-05   9.07965e-05   
6.10532e+01   5.52500e-04   5.91551e-05   5.91551e-05   
7.01269e+01   4.07000e-04   4.69810e-05   4.69810e-05   
8.04955e+01   2.14300e-04   3.11131e-05   3.11131e-05   
9.24052e+01   1.52400e-04   2.44173e-05   2.44173e-05   
1.08488e+02   9.62000e-05   1.56062e-05   1.56062e-05   
1.30411e+02   6.53000e-05   1.17326e-05   1.17326e-05   
1.63906e+02   2.65100e-05   5.43811e-06   5.43811e-06   
2.20900e+02   9.61400e-06   2.54284e-06   3.03579e-06   
3.18428e+02   2.77200e-06   1.11014e-06   1.30859e-06   
4.92336e+02   9.00000e-07   6.05358e-07   7.04598e-07   
