# SSDC Cosmic Ray Database tools.asdc.asi.it/CosmicRays
# https://ui.adsabs.harvard.edu/abs/none
# R [GV] flux [m-2 s-1 sr-1 GV-1] total_error_low total_error_high
2.27076e+00   3.82500e-01   1.34213e-02   1.34213e-02   
2.53056e+00   3.75700e-01   1.25028e-02   1.25028e-02   
2.81508e+00   3.49100e-01   1.13864e-02   1.13864e-02   
3.12495e+00   3.16600e-01   1.01710e-02   1.01710e-02   
3.45955e+00   2.82200e-01   8.95600e-03   8.95600e-03   
3.82418e+00   2.44100e-01   7.75242e-03   7.75242e-03   
4.21886e+00   2.10600e-01   6.63702e-03   6.63702e-03   
4.64829e+00   1.79200e-01   5.63205e-03   5.63205e-03   
5.11777e+00   1.50800e-01   4.72652e-03   4.72652e-03   
5.62731e+00   1.26000e-01   3.92046e-03   3.92046e-03   
6.17690e+00   1.03500e-01   3.21403e-03   3.21403e-03   
6.77126e+00   8.58900e-02   2.69459e-03   2.69459e-03   
7.41568e+00   6.98100e-02   2.19210e-03   2.19210e-03   
8.11015e+00   5.71100e-02   1.80006e-03   1.80006e-03   
8.85942e+00   4.65300e-02   1.46874e-03   1.46874e-03   
9.66876e+00   3.77400e-02   1.19708e-03   1.19708e-03   
1.05382e+01   3.04700e-02   9.66282e-04   9.66282e-04   
1.14866e+01   2.47100e-02   7.86384e-04   7.86384e-04   
1.24877e+01   1.98800e-02   6.35059e-04   6.35059e-04   
1.35362e+01   1.62400e-02   5.14782e-04   5.14782e-04   
1.46849e+01   1.32600e-02   4.24264e-04   4.24264e-04   
1.59337e+01   1.07200e-02   3.43657e-04   3.43657e-04   
1.72825e+01   8.68800e-03   2.79485e-04   2.79485e-04   
1.87315e+01   6.96600e-03   2.25062e-04   2.25062e-04   
2.02806e+01   5.65900e-03   1.83636e-04   1.83636e-04   
2.19297e+01   4.62700e-03   1.50266e-04   1.50266e-04   
2.37266e+01   3.67000e-03   1.19854e-04   1.19854e-04   
2.56760e+01   2.95900e-03   9.66902e-05   9.66902e-05   
2.77255e+01   2.38000e-03   7.84474e-05   7.84474e-05   
2.99228e+01   1.94000e-03   6.43273e-05   6.43273e-05   
3.22725e+01   1.55000e-03   5.21728e-05   5.21728e-05   
3.47700e+01   1.26000e-03   4.19762e-05   4.19762e-05   
3.74678e+01   1.02100e-03   3.49285e-05   3.49285e-05   
4.03656e+01   8.11600e-04   2.76740e-05   2.76740e-05   
4.34637e+01   6.70100e-04   2.30228e-05   2.30228e-05   
4.67619e+01   5.46100e-04   1.88600e-05   1.88600e-05   
5.03081e+01   4.47900e-04   1.56895e-05   1.56895e-05   
5.41067e+01   3.47300e-04   1.23329e-05   1.23329e-05   
5.81533e+01   2.81900e-04   1.00901e-05   1.00901e-05   
6.25001e+01   2.34900e-04   8.54400e-06   8.54400e-06   
6.71949e+01   1.88300e-04   6.90797e-06   6.90797e-06   
7.22423e+01   1.48400e-04   5.55428e-06   5.55428e-06   
7.76378e+01   1.23600e-04   4.74236e-06   4.74236e-06   
8.34335e+01   1.00700e-04   3.89102e-06   3.89102e-06   
8.96774e+01   8.18200e-05   3.22025e-06   3.22025e-06   
9.64217e+01   6.50300e-05   2.61859e-06   2.61859e-06   
1.03905e+02   5.38500e-05   2.19420e-06   2.19420e-06   
1.11912e+02   4.07100e-05   1.73643e-06   1.73643e-06   
1.20396e+02   3.39900e-05   1.47275e-06   1.47275e-06   
1.29881e+02   2.74300e-05   1.21495e-06   1.21495e-06   
1.40842e+02   2.18200e-05   9.76524e-07   9.76524e-07   
1.53330e+02   1.67500e-05   7.78010e-07   7.78010e-07   
1.67293e+02   1.32300e-05   6.26259e-07   6.26259e-07   
1.83257e+02   1.01000e-05   4.96790e-07   4.96790e-07   
2.01224e+02   7.26400e-06   3.80867e-07   3.80867e-07   
2.21664e+02   6.06800e-06   3.20545e-07   3.20545e-07   
2.45576e+02   4.40000e-06   2.43261e-07   2.43261e-07   
2.74426e+02   3.35200e-06   1.90213e-07   1.90213e-07   
3.09744e+02   2.37800e-06   1.41450e-07   1.41450e-07   
3.53455e+02   1.70600e-06   1.06104e-07   1.06104e-07   
4.08553e+02   1.06100e-06   7.22496e-08   7.22496e-08   
4.80744e+02   6.95200e-07   5.01687e-08   5.01687e-08   
5.87746e+02   3.94300e-07   3.04322e-08   3.04322e-08   
7.60270e+02   2.16000e-07   1.83848e-08   1.83848e-08   
1.06486e+03   9.32700e-08   9.35009e-09   9.35009e-09   
2.02084e+03   1.64600e-08   3.10693e-09   3.10693e-09   
