# Energy bin - Energy Mean [GeV] - flux - statistical (lo/up) - systematic (lo/up) 
  10.6   11.9   11.3  1.599e-1  0.002e-1  0.002e-1  0.085e-1  0.091e-1 
  11.9   13.4   12.6  1.099e-1  0.002e-1  0.002e-1  0.052e-1  0.055e-1 
  13.4   15.0   14.2  7.575e-2  0.013e-2  0.013e-2  0.373e-2  0.374e-2 
  15.0   16.9   15.9  5.166e-2  0.010e-2  0.010e-2  0.259e-2  0.248e-2 
  16.9   18.9   17.8  3.628e-2  0.007e-2  0.007e-2  0.187e-2  0.176e-2 
  18.9   21.2   20.0  2.524e-2  0.006e-2  0.006e-2  0.132e-2  0.123e-2 
  21.2   23.8   22.5  1.706e-2  0.004e-2  0.004e-2  0.090e-2  0.084e-2 
  23.8   26.7   25.2  1.177e-2  0.003e-2  0.003e-2  0.062e-2  0.059e-2 
  26.7   30.0   28.3  8.076e-3  0.018e-3  0.018e-3  0.422e-3  0.408e-3 
  30.0   33.7   31.7  5.433e-3  0.014e-3  0.014e-3  0.252e-3  0.246e-3 
  33.7   37.8   35.6  3.747e-3  0.011e-3  0.011e-3  0.173e-3  0.172e-3 
  37.8   42.4   39.9  2.620e-3  0.009e-3  0.009e-3  0.122e-3  0.121e-3 
  42.4   47.5   44.8  1.821e-3  0.007e-3  0.007e-3  0.085e-3  0.085e-3 
  47.5   53.3   50.3  1.268e-3  0.005e-3  0.005e-3  0.060e-3  0.059e-3 
  53.3   59.9   56.4  8.778e-4  0.042e-4  0.042e-4  0.428e-4  0.402e-4 
  59.9   67.2   63.3  6.122e-4  0.033e-4  0.033e-4  0.308e-4  0.276e-4 
  67.2   75.4   71.0  4.213e-4  0.026e-4  0.026e-4  0.220e-4  0.187e-4 
  75.4   84.6   79.7  2.953e-4  0.021e-4  0.021e-4  0.160e-4  0.129e-4 
  84.6   94.9   89.4  2.027e-4  0.016e-4  0.016e-4  0.114e-4  0.087e-4 
  94.9  106.4  100.4  1.45e-4   0.01e-4   0.01e-4   0.08e-4   0.06e-4 
 106.4  119.4  112.5  9.92e-5   0.10e-5   0.10e-5   0.60e-5   0.42e-5 
 119.4  134.0  126.3  6.93e-5   0.08e-5   0.08e-5   0.44e-5   0.29e-5 
 134.0  150.4  141.7  4.90e-5   0.06e-5   0.06e-5   0.32e-5   0.20e-5
 150.4  168.7  158.9  3.43e-5   0.05e-5   0.05e-5   0.23e-5   0.14e-5 
 168.7  189.3  178.6  2.44e-5   0.04e-5   0.04e-5   0.16e-5   0.10e-5 
 189.3  212.4  200.1  1.66e-5   0.03e-5   0.03e-5   0.11e-5   0.07e-5 
 212.4  238.3  224.6  1.17e-5   0.02e-5   0.02e-5   0.08e-5   0.05e-5 
 238.3  267.4  252.0  8.04e-6   0.19e-6   0.19e-6   0.50e-6   0.34e-6 
 267.4  300.0  282.6  5.60e-6   0.15e-6   0.15e-6   0.33e-6   0.24e-6 
 300.0  336.6  317.3  3.89e-6   0.12e-6   0.12e-6   0.22e-6   0.17e-6
 336.6  377.7  355.3  2.71e-6   0.09e-6   0.09e-6   0.14e-6   0.12e-6
 377.7  423.8  399.2  1.82e-6   0.07e-6   0.07e-6   0.09e-6   0.08e-6 
 423.8  475.5  447.7  1.29e-6   0.06e-6   0.06e-6   0.06e-6   0.05e-6
 475.5  598.6  529.0  7.46e-7   0.22e-7   0.22e-7   0.46e-7   0.32e-7
 598.6  753.6  666.2  3.52e-7   0.14e-7   0.14e-7   0.28e-7   0.23e-7
 753.6  948.7  841.8  1.63e-7   0.08e-7   0.08e-7   0.14e-7   0.16e-7
 948.7 1194.3 1055.3  6.72e-8   0.50e-8   0.50e-8   0.54e-8   0.93e-8
1194.3 1892.9 1454.7  1.59e-8   0.14e-8   0.14e-8   0.16e-8   0.30e-8
1892.9 3000.0 2241.5  3.41e-9   0.53e-9   0.53e-9   0.58e-9   0.55e-9 
3000.0 4754.7 3899.0  4.68e-10  1.38e-10  1.97e-10  1.39e-10  1.59e-10
4754.7 7535.7 5641.9  1.95e-10  0.72e-10  1.08e-10  0.92e-10  0.74e-10