# E_k bin (GeV) - \Phi \sigma_{\rm stat} \sigma_{\rm sys}^{\rm ana} \sigma_{\rm sys}^{\rm had} (GeV^{-1}m^{-2}s^{-1}sr^{-1}) 
 120.0    160.0   3.47e-3    0.005e-3   0.14e-3   0.14e-3 
 160.0    213.4   1.77e-3    0.001e-3   0.06e-3   0.07e-3 
 213.4    284.5   8.66e-4    0.006e-4   0.30e-4   0.35e-4 
 284.5    379.4   4.19e-4    0.004e-4   0.15e-4   0.17e-4 
 379.4    506.0   2.01e-4    0.002e-4   0.07e-4   0.08e-4 
 506.0    674.7   9.47e-5    0.012e-5   0.33e-5   0.38e-5 
 674.7    899.7   4.46e-5    0.007e-5   0.15e-5   0.18e-5 
 899.7     1200   2.08e-5    0.004e-5   0.07e-5   0.08e-5 
  1200     1600   9.66e-6    0.025e-6   0.33e-6   0.46e-6  
  1600     2134   4.50e-6    0.014e-6   0.16e-6   0.21e-6  
  2134     2845   2.09e-6    0.008e-6   0.07e-6   0.10e-6  
  2845     3794   9.69e-7    0.050e-7   0.34e-7   0.46e-7  
  3794     5060   4.51e-7    0.029e-7   0.16e-7   0.21e-7   
  5060     6747   2.13e-7    0.017e-7   0.07e-7   0.10e-7  
  6748     8997   1.03e-7    0.010e-7   0.04e-7   0.05e-7   
  8999    11998   5.00e-8    0.064e-8   0.19e-8   0.24e-8  
 11998    16000   2.46e-8    0.038e-8   0.09e-8   0.12e-8  
 16000    25358   9.89e-9    0.182e-9   0.38e-9   0.50e-9  
 25358    40190   3.21e-9    0.080e-9   0.12e-9   0.16e-9  
 40190    63697   1.04e-9    0.035e-9   0.40e-10  0.53e-10  
 63697   100953   3.37e-10   0.162e-10  0.13e-10  0.17e-10  
100953   160000   1.04e-10   0.071e-10  0.04e-10  0.10e-10   
160000   284525   2.39e-11   0.252e-11  0.12e-11  0.28e-11  
284525   505965   4.34e-12   0.810e-12  0.35e-12  0.52e-12  
505965   899746   7.88e-13   0.248e-13  0.87e-13  0.94e-13 