# E_k bin (GeV) - \Phi \sigma_{\rm stat} \sigma_{\rm sys}^{\rm ana} \sigma_{\rm sys}^{\rm had} (GeV^{-1}m^{-2}s^{-1}sr^{-1})
 419.9    560.0   1.21e-4    0.002e-4    0.04e-4    0.11e-4
 560.0    746.8   6.32e-5    0.008e-5    0.20e-5    0.71e-5
 746.8    995.8   3.21e-5    0.006e-5    0.10e-5    0.38e-5
 995.8     1328   1.62e-5    0.003e-5    0.05e-5    0.19e-5
  1328     1771   7.99e-6    0.022e-6    0.27e-6    0.95e-6
  1771     2362   3.89e-6    0.013e-6    0.13e-6    0.46e-6
  2362     3149   1.89e-6    0.008e-6    0.06e-6    0.22e-6
  3149     4199   9.01e-7    0.047e-7    0.30e-7    0.88e-7
  4199     5600   4.20e-7    0.028e-7    0.13e-7    0.32e-7
  5600     7468   1.95e-7    0.017e-7    0.07e-7    0.11e-7
  7468     9958   9.06e-8    0.098e-8    0.33e-8    0.29e-8
  9958    13280   4.37e-8    0.059e-8    0.16e-8    0.14e-8
 13280    17709   2.12e-8    0.035e-8    0.08e-8    0.07e-8
 17709    23615   1.01e-8    0.022e-8    0.04e-8    0.03e-8
 23615    31491   4.75e-9    0.132e-9    0.21e-9    0.15e-9
 31491    41994   2.33e-9    0.078e-9    0.10e-9    0.07e-9
 41994    56000   1.17e-9    0.047e-9    0.06e-9    0.04e-9
 56000    88754   4.69e-10   0.206e-10   0.27e-10   0.15e-10
 88754   140666   1.47e-10   0.089e-10   0.08e-10   0.05e-10
140666   222940   4.84e-11   0.388e-11   0.25e-11   0.15e-11
222940   353336   1.56e-11   0.177e-11   0.09e-11   0.05e-11
353336   560000   4.30e-12   0.795e-12   0.29e-12   0.14e-12
560000   995837   8.84e-13   2.068e-13   0.58e-13   0.28e-13
995837  1777088   1.36e-13   0.589e-13   0.14e-13   0.04e-13
