#Source: KCDC
#Ref: R. U. Abbasi et al 2018 ApJ 865 74
#Experiment: TALE
#Quantity: all particle
#Units: total Energy
#Url: https://kcdc.ikp.kit.edu/spectra/
#Comments: 
2.11349e+06 3.03370e-13 3.60146e-15 3.60146e-15 0.00000e+00 0.00000e+00 
2.37137e+06 2.22344e-13 2.17469e-15 2.17469e-15 0.00000e+00 0.00000e+00 
2.66073e+06 1.62026e-13 1.38030e-15 1.38030e-15 0.00000e+00 0.00000e+00 
2.98538e+06 1.19779e-13 9.02010e-16 9.02010e-16 0.00000e+00 0.00000e+00 
3.34965e+06 8.85223e-14 6.38574e-16 6.38574e-16 0.00000e+00 0.00000e+00 
3.75837e+06 6.40064e-14 4.33239e-16 4.33239e-16 0.00000e+00 0.00000e+00 
4.21697e+06 4.54864e-14 3.06710e-16 3.06710e-16 0.00000e+00 0.00000e+00 
4.73151e+06 3.16449e-14 2.07693e-16 2.07693e-16 0.00000e+00 0.00000e+00 
5.30884e+06 2.27571e-14 1.47036e-16 1.47036e-16 0.00000e+00 0.00000e+00 
5.95662e+06 1.60540e-14 1.04093e-16 1.04093e-16 0.00000e+00 0.00000e+00 
6.68344e+06 1.10874e-14 7.36924e-17 7.36924e-17 0.00000e+00 0.00000e+00 
7.49894e+06 7.79708e-15 5.21702e-17 5.21702e-17 0.00000e+00 0.00000e+00 
8.41395e+06 5.42422e-15 3.86125e-17 3.86125e-17 0.00000e+00 0.00000e+00 
9.44061e+06 3.75686e-15 2.73356e-17 2.73356e-17 0.00000e+00 0.00000e+00 
1.05925e+07 2.63525e-15 2.01935e-17 2.01935e-17 0.00000e+00 0.00000e+00 
1.18850e+07 1.83404e-15 1.48916e-17 1.48916e-17 0.00000e+00 0.00000e+00 
1.33352e+07 1.29630e-15 1.13858e-17 1.13858e-17 0.00000e+00 0.00000e+00 
1.49624e+07 9.04571e-16 8.35907e-18 8.35907e-18 0.00000e+00 0.00000e+00 
1.67880e+07 6.29397e-16 6.34047e-18 6.34047e-18 0.00000e+00 0.00000e+00 
1.88365e+07 4.47674e-16 4.93758e-18 4.93758e-18 0.00000e+00 0.00000e+00 
2.11349e+07 3.21166e-16 3.70739e-18 3.70739e-18 0.00000e+00 0.00000e+00 
2.37137e+07 2.30517e-16 2.84960e-18 2.84960e-18 0.00000e+00 0.00000e+00 
2.66073e+07 1.62875e-16 2.17663e-18 2.17663e-18 0.00000e+00 0.00000e+00 
2.98538e+07 1.18389e-16 1.69127e-18 1.69127e-18 0.00000e+00 0.00000e+00 
3.34965e+07 8.18173e-17 1.27715e-18 1.27715e-18 0.00000e+00 0.00000e+00 
3.75837e+07 5.93161e-17 9.60661e-19 9.60661e-19 0.00000e+00 0.00000e+00 
4.21697e+07 4.33928e-17 7.86778e-19 7.86778e-19 0.00000e+00 0.00000e+00 
4.73151e+07 3.09180e-17 5.94758e-19 5.94758e-19 0.00000e+00 0.00000e+00 
5.30884e+07 2.24898e-17 4.67841e-19 4.67841e-19 0.00000e+00 0.00000e+00 
5.95662e+07 1.54342e-17 3.54863e-19 3.54863e-19 0.00000e+00 0.00000e+00 
6.68344e+07 1.11108e-17 2.71322e-19 2.71322e-19 0.00000e+00 0.00000e+00 
7.49894e+07 8.05081e-18 2.11052e-19 2.11052e-19 0.00000e+00 0.00000e+00 
8.41395e+07 5.48801e-18 1.57808e-19 1.57808e-19 0.00000e+00 0.00000e+00 
9.44061e+07 4.15382e-18 1.25981e-19 1.25981e-19 0.00000e+00 0.00000e+00 
1.05925e+08 2.86832e-18 9.50777e-20 9.50777e-20 0.00000e+00 0.00000e+00 
1.18850e+08 2.08720e-18 7.26708e-20 7.26708e-20 0.00000e+00 0.00000e+00 
1.33352e+08 1.47214e-18 5.39772e-20 5.39772e-20 0.00000e+00 0.00000e+00 
1.49624e+08 1.02160e-18 3.94071e-20 3.94071e-20 0.00000e+00 0.00000e+00 
1.67880e+08 6.23902e-19 2.62073e-20 2.62073e-20 0.00000e+00 0.00000e+00 
1.88365e+08 4.34058e-19 1.85533e-20 1.85533e-20 0.00000e+00 0.00000e+00 
2.11349e+08 3.08878e-19 1.34525e-20 1.34525e-20 0.00000e+00 0.00000e+00 
2.37137e+08 2.34567e-19 1.01236e-20 1.01236e-20 0.00000e+00 0.00000e+00 
2.66073e+08 1.62079e-19 7.27312e-21 7.27312e-21 0.00000e+00 0.00000e+00 
2.98538e+08 1.09782e-19 5.18656e-21 5.18656e-21 0.00000e+00 0.00000e+00 
3.34965e+08 7.32498e-20 3.67180e-21 3.67180e-21 0.00000e+00 0.00000e+00 
3.75837e+08 5.32696e-20 2.71245e-21 2.71245e-21 0.00000e+00 0.00000e+00 
4.46684e+08 2.83871e-20 1.15568e-21 1.15568e-21 0.00000e+00 0.00000e+00 
5.62341e+08 1.43285e-20 6.46693e-22 6.46693e-22 0.00000e+00 0.00000e+00 
7.07946e+08 7.04032e-21 3.60753e-22 3.60753e-22 0.00000e+00 0.00000e+00 
8.91251e+08 3.57372e-21 2.06230e-22 2.06230e-22 0.00000e+00 0.00000e+00 
1.12202e+09 1.63394e-21 1.18227e-22 1.18227e-22 0.00000e+00 0.00000e+00 
1.41254e+09 7.08208e-22 6.56405e-23 6.56405e-23 0.00000e+00 0.00000e+00 
1.77828e+09 3.68282e-22 4.00113e-23 4.00113e-23 0.00000e+00 0.00000e+00 
