#Source: KCDC
#Ref: 10.22323/1.236.0359 (2015ICRC...34..359B)
#Experiment: KASCADE-Grande
#Quantity: all particle
#Units: total Energy
#Url: https://kcdc.ikp.kit.edu/spectra/
#Comments: 
1.77828e+07 5.36876e-16 3.29913e-18 3.29913e-18 0.00000e+00 0.00000e+00 
2.23872e+07 2.68625e-16 1.80110e-18 1.80110e-18 0.00000e+00 0.00000e+00 
2.81838e+07 1.29107e-16 9.95324e-19 9.95324e-19 0.00000e+00 0.00000e+00 
3.54813e+07 6.67531e-17 6.37996e-19 6.37996e-19 0.00000e+00 0.00000e+00 
4.46684e+07 3.25986e-17 3.97417e-19 3.97417e-19 0.00000e+00 0.00000e+00 
5.62341e+07 1.67619e-17 2.53931e-19 2.53931e-19 0.00000e+00 0.00000e+00 
7.07946e+07 8.53145e-18 1.61448e-19 1.61448e-19 0.00000e+00 0.00000e+00 
8.91251e+07 4.08519e-18 9.95700e-20 9.95700e-20 0.00000e+00 0.00000e+00 
1.12202e+08 1.86636e-18 5.99856e-20 5.99856e-20 0.00000e+00 0.00000e+00 
1.41254e+08 9.49283e-19 3.81348e-20 3.81348e-20 0.00000e+00 0.00000e+00 
1.77828e+08 4.95161e-19 2.45425e-20 2.45425e-20 0.00000e+00 0.00000e+00 
2.23872e+08 2.19335e-19 1.45604e-20 1.45604e-20 0.00000e+00 0.00000e+00 
2.81838e+08 1.08198e-19 9.11625e-21 9.11625e-21 0.00000e+00 0.00000e+00 
3.54813e+08 5.24188e-20 5.65398e-21 5.65398e-21 0.00000e+00 0.00000e+00 
5.01187e+08 2.22837e-20 2.16512e-21 2.16512e-21 0.00000e+00 0.00000e+00 
7.94328e+08 3.31577e-21 6.63248e-22 6.63248e-22 0.00000e+00 0.00000e+00 
