#Source: 
#Ref: Amenomori et al., The Astrophysical Journal (2008) 678
#Experiment: TIBET
#Quantity: all particle
#Units: total Energy
#Url: https://iopscience.iop.org/article/10.1086/529514
#Comments: using the column of QGSJET+HD from Table 4
1.12000e+05 8.63900e-10 2.00000e-13 2.00000e-13 0.00000e+00 0.00000e+00 
1.41000e+05 4.68400e-10 1.00000e-13 1.00000e-13 0.00000e+00 0.00000e+00 
1.78000e+05 2.52900e-10 1.00000e-13 1.00000e-13 0.00000e+00 0.00000e+00 
2.24000e+05 1.36000e-10 1.00000e-13 1.00000e-13 0.00000e+00 0.00000e+00 
2.82000e+05 7.37000e-11 4.00000e-14 4.00000e-14 0.00000e+00 0.00000e+00 
3.55000e+05 4.01500e-11 3.00000e-14 3.00000e-14 0.00000e+00 0.00000e+00 
4.47000e+05 2.17300e-11 2.00000e-14 2.00000e-14 0.00000e+00 0.00000e+00 
5.62000e+05 1.17900e-11 1.00000e-14 1.00000e-14 0.00000e+00 0.00000e+00 
7.08000e+05 6.37300e-12 7.00000e-15 7.00000e-15 0.00000e+00 0.00000e+00 
8.91000e+05 3.43300e-12 5.00000e-15 5.00000e-15 0.00000e+00 0.00000e+00 
1.12000e+06 1.85300e-12 3.00000e-15 3.00000e-15 0.00000e+00 0.00000e+00 
1.41000e+06 1.01400e-12 2.00000e-15 2.00000e-15 0.00000e+00 0.00000e+00 
1.78000e+06 5.51400e-13 1.40000e-15 1.40000e-15 0.00000e+00 0.00000e+00 
2.24000e+06 2.97800e-13 9.00000e-16 9.00000e-16 0.00000e+00 0.00000e+00 
2.82000e+06 1.61000e-13 6.00000e-16 6.00000e-16 0.00000e+00 0.00000e+00 
3.55000e+06 8.44400e-14 3.80000e-16 3.80000e-16 0.00000e+00 0.00000e+00 
4.47000e+06 4.26100e-14 2.40000e-16 2.40000e-16 0.00000e+00 0.00000e+00 
5.62000e+06 2.13300e-14 1.50000e-16 1.50000e-16 0.00000e+00 0.00000e+00 
7.08000e+06 1.03100e-14 9.00000e-17 9.00000e-17 0.00000e+00 0.00000e+00 
8.91000e+06 4.97600e-15 5.80000e-17 5.80000e-17 0.00000e+00 0.00000e+00 
1.12000e+07 2.32100e-15 3.50000e-17 3.50000e-17 0.00000e+00 0.00000e+00 
1.41000e+07 1.16000e-15 2.20000e-17 2.20000e-17 0.00000e+00 0.00000e+00 
1.78000e+07 5.92400e-16 1.41000e-17 1.41000e-17 0.00000e+00 0.00000e+00 
2.24000e+07 2.78700e-16 8.60000e-18 8.60000e-18 0.00000e+00 0.00000e+00 
2.82000e+07 1.47600e-16 5.60000e-18 5.60000e-18 0.00000e+00 0.00000e+00 
3.55000e+07 6.51600e-17 3.31000e-18 3.31000e-18 0.00000e+00 0.00000e+00 
4.47000e+07 3.03800e-17 2.02000e-18 2.02000e-18 0.00000e+00 0.00000e+00 
5.62000e+07 1.84800e-17 1.40000e-18 1.40000e-18 0.00000e+00 0.00000e+00 
7.08000e+07 8.34500e-18 8.40000e-19 8.40000e-19 0.00000e+00 0.00000e+00 
8.91000e+07 4.08600e-18 5.24000e-19 5.24000e-19 0.00000e+00 0.00000e+00 
1.12000e+08 2.63600e-18 3.75000e-19 3.75000e-19 0.00000e+00 0.00000e+00 
1.41000e+08 1.11540e-18 2.17400e-19 2.17400e-19 0.00000e+00 0.00000e+00 
1.78000e+08 4.92200e-19 1.28700e-19 1.28700e-19 0.00000e+00 0.00000e+00 
