#Source: KCDC
#Ref: Thesis M. Finger ()
#Experiment: KASCADE
#Quantity: all particle
#Units: total Energy
#Url: https://kcdc.ikp.kit.edu/spectra/
#Comments: 
1.41254e+06 1.11440e-12 1.07323e-14 1.07323e-14 0.00000e+00 0.00000e+00 
1.77828e+06 5.84370e-13 6.12592e-15 6.12592e-15 0.00000e+00 0.00000e+00 
2.23872e+06 3.11682e-13 3.86234e-15 3.86234e-15 0.00000e+00 0.00000e+00 
2.81838e+06 1.66891e-13 2.55317e-15 2.55317e-15 0.00000e+00 0.00000e+00 
3.54813e+06 8.34263e-14 1.66320e-15 1.66320e-15 0.00000e+00 0.00000e+00 
4.46684e+06 4.35278e-14 1.29807e-15 1.29807e-15 0.00000e+00 0.00000e+00 
5.62341e+06 2.18871e-14 7.21964e-16 7.21964e-16 0.00000e+00 0.00000e+00 
7.07946e+06 1.15068e-14 4.42221e-16 4.42221e-16 0.00000e+00 0.00000e+00 
8.91251e+06 5.09231e-15 2.70072e-16 2.70072e-16 0.00000e+00 0.00000e+00 
1.12202e+07 2.87827e-15 1.66378e-16 1.66378e-16 0.00000e+00 0.00000e+00 
1.41254e+07 1.21428e-15 9.69832e-17 9.69832e-17 0.00000e+00 0.00000e+00 
1.77828e+07 7.41866e-16 6.84271e-17 6.84271e-17 0.00000e+00 0.00000e+00 
2.23872e+07 2.90675e-16 3.57365e-17 3.57365e-17 0.00000e+00 0.00000e+00 
2.81838e+07 1.98763e-16 2.58398e-17 2.58398e-17 0.00000e+00 0.00000e+00 
3.54813e+07 5.73402e-17 1.20376e-17 1.20376e-17 0.00000e+00 0.00000e+00 
4.46684e+07 4.36581e-17 7.30703e-18 7.30703e-18 0.00000e+00 0.00000e+00 
5.62341e+07 1.87933e-17 5.23972e-18 5.23972e-18 0.00000e+00 0.00000e+00 
7.07946e+07 7.00083e-18 2.38238e-18 2.38238e-18 0.00000e+00 0.00000e+00 
8.91251e+07 5.56270e-18 1.51506e-18 1.51506e-18 0.00000e+00 0.00000e+00 
