#Source: KCDC
#Ref: Antoni et al., Astroparticle Physics, 24, Issues 1–2, 2005 ()
#Experiment: KASCADE
#Quantity: all particle
#Units: total Energy
#Url: https://kcdc.ikp.kit.edu/spectra/
#Comments: 
1.77828e+06 6.54120e-13 2.51717e-14 2.51717e-14 0.00000e+00 0.00000e+00 
2.23872e+06 3.54278e-13 1.25184e-14 1.25184e-14 0.00000e+00 0.00000e+00 
2.81838e+06 1.80008e-13 7.52611e-15 7.52611e-15 0.00000e+00 0.00000e+00 
3.54813e+06 1.00715e-13 5.10354e-15 5.10354e-15 0.00000e+00 0.00000e+00 
4.46684e+06 4.90419e-14 2.67743e-15 2.67743e-15 0.00000e+00 0.00000e+00 
5.62341e+06 2.59363e-14 1.76061e-15 1.76061e-15 0.00000e+00 0.00000e+00 
7.07946e+06 1.19903e-14 1.04511e-15 1.04511e-15 0.00000e+00 0.00000e+00 
8.91251e+06 6.40908e-15 6.18142e-16 6.18142e-16 0.00000e+00 0.00000e+00 
1.12202e+07 2.81334e-15 3.54294e-16 3.54294e-16 0.00000e+00 0.00000e+00 
1.41254e+07 1.53773e-15 2.15605e-16 2.15605e-16 0.00000e+00 0.00000e+00 
1.77828e+07 6.24379e-16 1.34937e-16 1.34937e-16 0.00000e+00 0.00000e+00 
2.23872e+07 3.08781e-16 7.82886e-17 7.82886e-17 0.00000e+00 0.00000e+00 
2.81838e+07 1.98455e-16 4.47749e-17 4.47749e-17 0.00000e+00 0.00000e+00 
3.54813e+07 8.09639e-17 2.51782e-17 2.51782e-17 0.00000e+00 0.00000e+00 
4.46684e+07 4.21780e-17 1.16135e-17 1.16135e-17 0.00000e+00 0.00000e+00 
5.62341e+07 1.82580e-17 7.36918e-18 7.36918e-18 0.00000e+00 0.00000e+00 
7.07946e+07 1.36659e-17 3.98892e-18 3.98892e-18 0.00000e+00 0.00000e+00 
8.91251e+07 6.06916e-18 2.87044e-18 2.87044e-18 0.00000e+00 0.00000e+00 
