# credit: SSDC Cosmic Ray Database tools.asdc.asi.it/CosmicRays 
# rigidity [GV] - flux [] - flux_error_low [] - flux_error_high [] 
2.27500e+00   2.94700e-01   1.98250e-02   1.98250e-02   
2.53500e+00   3.03300e-01   1.82088e-02   1.82088e-02   
2.82000e+00   3.08600e-01   1.66655e-02   1.66655e-02   
3.13000e+00   3.17300e-01   1.55081e-02   1.55081e-02   
3.46500e+00   3.24100e-01   1.44449e-02   1.44449e-02   
3.83000e+00   3.29600e-01   1.35073e-02   1.35073e-02   
4.22500e+00   3.28500e-01   1.24900e-02   1.24900e-02   
4.65500e+00   3.22100e-01   1.14564e-02   1.14564e-02   
5.12500e+00   3.20000e-01   1.07382e-02   1.07382e-02   
5.63500e+00   3.14500e-01   1.00467e-02   1.00467e-02   
6.18500e+00   3.08700e-01   9.46572e-03   9.46572e-03   
6.78000e+00   3.03200e-01   8.98873e-03   8.98873e-03   
7.42500e+00   2.97700e-01   8.58546e-03   8.58546e-03   
8.12000e+00   2.91700e-01   8.22536e-03   8.22536e-03   
8.87000e+00   2.88000e-01   7.97828e-03   7.97828e-03   
9.68000e+00   2.83400e-01   7.73793e-03   7.73793e-03   
1.05500e+01   2.81100e-01   7.59018e-03   7.59018e-03   
1.15000e+01   2.74800e-01   7.35141e-03   7.35141e-03   
1.25000e+01   2.70900e-01   7.20913e-03   7.20913e-03   
1.35500e+01   2.64700e-01   7.01390e-03   7.01390e-03   
1.47000e+01   2.60200e-01   6.87628e-03   6.87628e-03   
1.59500e+01   2.55500e-01   6.74596e-03   6.74596e-03   
1.73000e+01   2.47100e-01   6.53150e-03   6.53150e-03   
1.87500e+01   2.44900e-01   6.48670e-03   6.48670e-03   
2.03000e+01   2.36200e-01   6.27892e-03   6.27892e-03   
2.19500e+01   2.30200e-01   6.14376e-03   6.14376e-03   
2.37500e+01   2.24700e-01   6.01850e-03   6.01850e-03   
2.57000e+01   2.20800e-01   5.95284e-03   5.95284e-03   
2.77500e+01   2.18200e-01   5.92396e-03   5.92396e-03   
2.99500e+01   2.07100e-01   5.66942e-03   5.66942e-03   
3.23000e+01   2.01200e-01   5.56800e-03   5.56800e-03   
3.48000e+01   1.98500e-01   5.54763e-03   5.54763e-03   
3.75000e+01   1.91500e-01   5.41766e-03   5.41766e-03   
4.04000e+01   1.81800e-01   5.21750e-03   5.21750e-03   
4.35000e+01   1.81100e-01   5.27130e-03   5.27130e-03   
4.68000e+01   1.80200e-01   5.32215e-03   5.32215e-03   
5.03500e+01   1.67300e-01   5.02250e-03   5.02250e-03   
5.41500e+01   1.66400e-01   5.08592e-03   5.08592e-03   
5.82000e+01   1.60600e-01   5.00014e-03   5.00014e-03   
6.25500e+01   1.55500e-01   4.94006e-03   4.94006e-03   
6.72500e+01   1.52100e-01   4.93260e-03   4.93260e-03   
7.23000e+01   1.47700e-01   4.90984e-03   4.90984e-03   
7.77000e+01   1.45600e-01   4.94580e-03   4.94580e-03   
8.35000e+01   1.42800e-01   4.98665e-03   4.98665e-03   
8.97500e+01   1.40700e-01   5.02865e-03   5.02865e-03   
9.65000e+01   1.33700e-01   4.95795e-03   4.95795e-03   
1.04000e+02   1.26700e-01   4.81726e-03   4.81726e-03   
1.12000e+02   1.22900e-01   4.93988e-03   4.93988e-03   
1.20500e+02   1.26100e-01   5.14538e-03   5.14538e-03   
1.30000e+02   1.17500e-01   5.03483e-03   5.03483e-03   
1.41000e+02   1.15000e-01   5.03008e-03   5.03008e-03   
1.53500e+02   1.07900e-01   5.04423e-03   5.04423e-03   
1.67500e+02   1.09700e-01   5.27896e-03   5.27896e-03   
1.83500e+02   1.11900e-01   5.59477e-03   5.59477e-03   
2.01500e+02   1.06600e-01   5.72570e-03   5.72570e-03   
2.22000e+02   1.01500e-01   5.75711e-03   5.75711e-03   
2.46000e+02   9.97300e-02   5.95684e-03   5.95684e-03   
2.75000e+02   8.52000e-02   5.53933e-03   5.53933e-03   
3.10500e+02   9.26600e-02   6.30497e-03   6.30497e-03   
3.54500e+02   7.99900e-02   6.02002e-03   6.02002e-03   
4.10000e+02   8.41700e-02   6.88024e-03   6.88024e-03   
4.83000e+02   7.91100e-02   7.03244e-03   7.03244e-03   
5.92500e+02   8.09600e-02   7.77290e-03   7.77290e-03   
7.70000e+02   7.11500e-02   8.29175e-03   8.29175e-03   
1.09000e+03   7.32600e-02   1.04910e-02   1.04910e-02   
2.30000e+03   4.46100e-02   1.34916e-02   1.34916e-02   
