#Source: 
#Ref: 10.1103/PhysRevLett.126.041104 (2021PhRvL.126d1104A)
#Experiment: AMS-02
#Quantity: Fe
#Units: total energy(converted)
#Url: 
#Comments: table read from Supp.Material
7.29415e+01 3.59769e-03 2.21770e-04 2.21770e-04 3.34615e-05 3.34615e-05 
8.12736e+01 3.22769e-03 1.69603e-04 1.69603e-04 2.53846e-05 2.53846e-05 
8.99750e+01 2.86885e-03 1.38432e-04 1.38432e-04 2.03846e-05 2.03846e-05 
9.94574e+01 2.52962e-03 1.16675e-04 1.16675e-04 1.73077e-05 1.73077e-05 
1.09721e+02 2.26846e-03 1.01824e-04 1.01824e-04 1.46154e-05 1.46154e-05 
1.20889e+02 1.95692e-03 8.58322e-05 8.58322e-05 1.19231e-05 1.19231e-05 
1.33098e+02 1.68731e-03 7.29442e-05 7.29442e-05 9.61538e-06 9.61538e-06 
1.46348e+02 1.46538e-03 6.28796e-05 6.28796e-05 8.46154e-06 8.46154e-06 
1.60639e+02 1.25385e-03 5.35776e-05 5.35776e-05 7.30769e-06 7.30769e-06 
1.76096e+02 1.07615e-03 4.57999e-05 4.57999e-05 6.15385e-06 6.15385e-06 
1.92853e+02 8.97308e-04 3.80225e-05 3.80225e-05 5.00000e-06 5.00000e-06 
2.10912e+02 7.56538e-04 3.22022e-05 3.22022e-05 4.23077e-06 4.23077e-06 
2.30397e+02 6.39231e-04 2.71447e-05 2.71447e-05 3.46154e-06 3.46154e-06 
2.51443e+02 5.37692e-04 2.29000e-05 2.29000e-05 3.07692e-06 3.07692e-06 
2.74050e+02 4.51154e-04 1.90375e-05 1.90375e-05 2.69231e-06 2.69231e-06 
2.98717e+02 3.79962e-04 1.61502e-05 1.61502e-05 2.46154e-06 2.46154e-06 
3.24740e+02 3.13346e-04 1.33796e-05 1.33796e-05 2.23077e-06 2.23077e-06 
3.52010e+02 2.68538e-04 1.14766e-05 1.14766e-05 1.96154e-06 1.96154e-06 
3.81881e+02 2.21038e-04 9.46724e-06 9.46724e-06 1.73077e-06 1.73077e-06 
4.14355e+02 1.85269e-04 7.98825e-06 7.98825e-06 1.50000e-06 1.50000e-06 
4.49432e+02 1.56808e-04 6.78113e-06 6.78113e-06 1.30769e-06 1.30769e-06 
4.87110e+02 1.29038e-04 5.58209e-06 5.58209e-06 1.15385e-06 1.15385e-06 
5.27390e+02 1.09308e-04 4.76007e-06 4.76007e-06 1.00000e-06 1.00000e-06 
5.70272e+02 9.12308e-05 3.97570e-06 3.97570e-06 8.46154e-07 8.46154e-07 
6.17006e+02 7.54615e-05 3.30411e-06 3.30411e-06 6.92308e-07 6.92308e-07 
6.67694e+02 6.35000e-05 2.76174e-06 2.76174e-06 6.15385e-07 6.15385e-07 
7.20983e+02 5.39615e-05 2.36968e-06 2.36968e-06 5.38462e-07 5.38462e-07 
8.07592e+02 4.12308e-05 1.77299e-06 1.77299e-06 3.84615e-07 3.84615e-07 
9.38578e+02 2.78269e-05 1.19682e-06 1.19682e-06 2.88462e-07 2.88462e-07 
1.08902e+03 1.94846e-05 8.41640e-07 8.41640e-07 2.23077e-07 2.23077e-07 
1.26153e+03 1.32038e-05 5.76590e-07 5.76590e-07 1.73077e-07 1.73077e-07 
1.45870e+03 9.55769e-06 4.23287e-07 4.23287e-07 1.38462e-07 1.38462e-07 
1.68558e+03 6.62692e-06 2.97126e-07 2.97126e-07 1.07692e-07 1.07692e-07 
1.94755e+03 4.56154e-06 2.08581e-07 2.08581e-07 8.07692e-08 8.07692e-08 
2.24964e+03 3.13115e-06 1.45880e-07 1.45880e-07 6.30769e-08 6.30769e-08 
2.60571e+03 2.11154e-06 1.00656e-07 1.00656e-07 4.73077e-08 4.73077e-08 
3.02093e+03 1.39423e-06 6.90650e-08 6.90650e-08 3.61538e-08 3.61538e-08 
3.52441e+03 9.21923e-07 4.69373e-08 4.69373e-08 2.57692e-08 2.57692e-08 
4.17014e+03 5.83077e-07 3.08509e-08 3.08509e-08 1.80769e-08 1.80769e-08 
4.99613e+03 3.81769e-07 2.09044e-08 2.09044e-08 1.28846e-08 1.28846e-08 
6.07805e+03 2.26808e-07 1.31122e-08 1.31122e-08 8.61538e-09 8.61538e-09 
7.60117e+03 1.29385e-07 7.83729e-09 7.83729e-09 5.34615e-09 5.34615e-09 
9.91858e+03 6.03077e-08 4.00018e-09 4.00018e-09 2.92308e-09 2.92308e-09 
1.40270e+04 2.52577e-08 1.81880e-09 1.81880e-09 1.34615e-09 1.34615e-09 
2.31385e+04 6.56538e-09 5.93505e-10 5.93505e-10 4.38462e-10 4.38462e-10 
