#Source: 
#Ref: 10.1103/PhysRevLett.126.241101 ()
#Experiment: CALET
#Quantity: Fe
#Units: total Energy
#Url: 
#Comments: 
6.28598e+02 4.46429e-05 6.80683e-06 5.56158e-06 5.35714e-07 5.35714e-07 
7.90136e+02 2.87500e-05 4.47855e-06 3.58924e-06 3.57143e-07 3.57143e-07 
9.95478e+02 1.75714e-05 2.47075e-06 2.06132e-06 1.78571e-07 1.78571e-07 
1.25470e+03 1.03036e-05 1.45039e-06 1.13009e-06 1.07143e-07 1.07143e-07 
1.57713e+03 5.80357e-06 8.60114e-07 4.69748e-07 7.14286e-08 7.14286e-08 
1.98597e+03 3.19643e-06 5.38386e-07 2.73162e-07 5.35714e-08 5.35714e-08 
2.50062e+03 1.75714e-06 2.37440e-07 1.35196e-07 2.85714e-08 2.85714e-08 
3.14863e+03 1.00179e-06 1.17722e-07 7.23600e-08 1.96429e-08 1.96429e-08 
3.96381e+03 5.73214e-07 3.61580e-08 4.98083e-08 1.25000e-08 1.25000e-08 
4.98997e+03 3.17857e-07 2.15769e-08 3.16429e-08 8.92857e-09 8.92857e-09 
6.28349e+03 1.69464e-07 1.16620e-08 1.78571e-08 5.00000e-09 5.00000e-09 
7.91071e+03 9.55357e-08 1.10685e-08 7.26898e-09 3.39286e-09 3.39286e-09 
9.95805e+03 5.03571e-08 6.27037e-09 4.01289e-09 2.14286e-09 2.14286e-09 
1.25363e+04 2.76786e-08 3.19438e-09 2.42883e-09 1.42857e-09 1.42857e-09 
1.57826e+04 1.54643e-08 2.20505e-09 1.32589e-09 9.28571e-10 9.28571e-10 
1.98685e+04 8.42857e-09 1.16988e-09 8.71348e-10 6.07143e-10 6.07143e-10 
2.50144e+04 4.53571e-09 5.17857e-10 5.17857e-10 3.75000e-10 3.75000e-10 
3.14926e+04 2.57143e-09 3.66398e-10 3.54454e-10 2.67857e-10 2.67857e-10 
3.96456e+04 1.40893e-09 2.13943e-10 2.50217e-10 1.69643e-10 1.69643e-10 
4.99092e+04 7.71429e-10 1.33726e-10 1.64325e-10 1.10714e-10 1.10714e-10 
6.28324e+04 4.03571e-10 8.82259e-11 9.73009e-11 7.14286e-11 7.14286e-11 
7.91015e+04 2.26786e-10 5.45155e-11 5.19087e-11 4.64286e-11 4.64286e-11 
