# credit: SSDC Cosmic Ray Database tools.asdc.asi.it/CosmicRays 
# rigidity [GV] - flux [] - flux_error_low [] - flux_error_high [] 
1.07466e+00   6.26900e+02   4.61999e+01   4.61999e+01   
1.23978e+00   6.62500e+02   3.90068e+01   3.90068e+01   
1.41486e+00   6.43200e+02   3.05966e+01   3.05966e+01   
1.60441e+00   6.05900e+02   2.61147e+01   2.61147e+01   
1.80953e+00   5.54400e+02   2.17571e+01   2.17571e+01   
2.02915e+00   4.99300e+02   1.79817e+01   1.79817e+01   
2.26882e+00   4.42000e+02   1.47095e+01   1.47095e+01   
2.52853e+00   3.87800e+02   1.19950e+01   1.19950e+01   
2.81282e+00   3.35900e+02   9.67729e+00   9.67729e+00   
3.12264e+00   2.88200e+02   7.93284e+00   7.93284e+00   
3.45704e+00   2.45300e+02   6.39922e+00   6.39922e+00   
3.82152e+00   2.06800e+02   5.21153e+00   5.21153e+00   
4.21605e+00   1.73100e+02   4.30349e+00   4.30349e+00   
4.64521e+00   1.43800e+02   3.47707e+00   3.47707e+00   
5.11446e+00   1.18400e+02   2.76586e+00   2.76586e+00   
5.62378e+00   9.69100e+01   2.24762e+00   2.24762e+00   
6.17318e+00   7.90300e+01   1.79919e+00   1.79919e+00   
6.76724e+00   6.42000e+01   1.43906e+00   1.43906e+00   
7.41139e+00   5.19700e+01   1.15823e+00   1.15823e+00   
8.10563e+00   4.20000e+01   9.33649e-01   9.33649e-01   
8.85456e+00   3.38600e+01   7.44446e-01   7.44446e-01   
9.66360e+00   2.72400e+01   5.89746e-01   5.89746e-01   
1.05327e+01   2.19000e+01   4.81768e-01   4.81768e-01   
1.14804e+01   1.75800e+01   3.81576e-01   3.81576e-01   
1.24820e+01   1.41700e+01   3.10322e-01   3.10322e-01   
1.35299e+01   1.14800e+01   2.58457e-01   2.58457e-01   
1.46780e+01   9.26600e+00   2.04265e-01   2.04265e-01   
1.59262e+01   7.46000e+00   1.64365e-01   1.64365e-01   
1.72745e+01   5.99500e+00   1.32921e-01   1.32921e-01   
1.87230e+01   4.83200e+00   1.07322e-01   1.07322e-01   
2.02716e+01   3.89400e+00   8.66776e-02   8.66776e-02   
2.19204e+01   3.15100e+00   7.06895e-02   7.06895e-02   
2.37158e+01   2.53800e+00   5.68155e-02   5.68155e-02   
2.56650e+01   2.04000e+00   4.52769e-02   4.52769e-02   
2.77142e+01   1.65000e+00   3.64005e-02   3.64005e-02   
2.99103e+01   1.33500e+00   2.96479e-02   2.96479e-02   
3.22599e+01   1.08200e+00   2.44540e-02   2.44540e-02   
3.47563e+01   8.79100e-01   1.98736e-02   1.98736e-02   
3.74530e+01   7.13200e-01   1.61180e-02   1.61180e-02   
4.03499e+01   5.79300e-01   1.31537e-02   1.31537e-02   
4.34470e+01   4.71600e-01   1.07280e-02   1.07280e-02   
4.67444e+01   3.83900e-01   8.80227e-03   8.80227e-03   
5.02888e+01   3.12800e-01   7.23948e-03   7.23948e-03   
5.40868e+01   2.54900e-01   5.89322e-03   5.89322e-03   
5.81318e+01   2.08000e-01   4.83529e-03   4.83529e-03   
6.24772e+01   1.70100e-01   3.96737e-03   3.96737e-03   
6.71697e+01   1.39300e-01   3.25730e-03   3.25730e-03   
7.22158e+01   1.13200e-01   2.60192e-03   2.60192e-03   
7.76092e+01   9.26300e-02   2.19251e-03   2.19251e-03   
8.34030e+01   7.53000e-02   1.79580e-03   1.79580e-03   
8.96441e+01   6.14600e-02   1.47010e-03   1.47010e-03   
9.63857e+01   5.02600e-02   1.21000e-03   1.21000e-03   
1.03862e+02   4.08500e-02   1.00185e-03   1.00185e-03   
1.11871e+02   3.29400e-02   8.13327e-04   8.13327e-04   
1.20349e+02   2.69800e-02   6.74981e-04   6.74981e-04   
1.29827e+02   2.17400e-02   5.53353e-04   5.53353e-04   
1.40770e+02   1.72700e-02   4.53100e-04   4.53100e-04   
1.53252e+02   1.35800e-02   3.64417e-04   3.64417e-04   
1.67198e+02   1.06500e-02   2.91204e-04   2.91204e-04   
1.83146e+02   8.21200e-03   2.29497e-04   2.29497e-04   
2.01097e+02   6.29900e-03   1.79747e-04   1.79747e-04   
2.21509e+02   4.79300e-03   1.43210e-04   1.43210e-04   
2.45382e+02   3.60500e-03   1.11946e-04   1.11946e-04   
2.74162e+02   2.64700e-03   8.43742e-05   8.43742e-05   
3.09398e+02   1.88400e-03   6.37730e-05   6.37730e-05   
3.52976e+02   1.28800e-03   4.68508e-05   4.68508e-05   
4.07890e+02   8.69500e-04   3.36177e-05   3.36177e-05   
4.79711e+02   5.54500e-04   2.32265e-05   2.32265e-05   
5.78631e+02   3.35700e-04   1.58398e-05   1.58398e-05   
7.22647e+02   1.86000e-04   1.02995e-05   1.02995e-05   
9.54090e+02   8.57100e-05   6.10533e-06   6.10533e-06   
1.39579e+03   2.93300e-05   2.97064e-06   2.97064e-06   
