# credit: SSDC Cosmic Ray Database tools.asdc.asi.it/CosmicRays 
# rigidity [GV] - flux [] - flux_error_low [] - flux_error_high [] 
1.07634e+00   6.26900e+02   2.64581e+01   2.64581e+01   
1.24142e+00   6.62500e+02   2.23915e+01   2.23915e+01   
1.41648e+00   6.43200e+02   1.76131e+01   1.76131e+01   
1.60617e+00   6.05900e+02   1.50469e+01   1.50469e+01   
1.81125e+00   5.54400e+02   1.24956e+01   1.24956e+01   
2.03099e+00   4.99300e+02   1.03547e+01   1.03547e+01   
2.27076e+00   4.42000e+02   8.48941e+00   8.48941e+00   
2.53056e+00   3.87800e+02   6.98284e+00   6.98284e+00   
2.81508e+00   3.35900e+02   5.57046e+00   5.57046e+00   
3.12495e+00   2.88200e+02   4.54533e+00   4.54533e+00   
3.45955e+00   2.45300e+02   3.69053e+00   3.69053e+00   
3.82418e+00   2.06800e+02   3.03480e+00   3.03480e+00   
4.21886e+00   1.73100e+02   2.45764e+00   2.45764e+00   
4.64829e+00   1.43800e+02   2.02485e+00   2.02485e+00   
5.11777e+00   1.18400e+02   1.59374e+00   1.59374e+00   
5.62731e+00   9.69100e+01   1.29522e+00   1.29522e+00   
6.17690e+00   7.90300e+01   1.03822e+00   1.03822e+00   
6.77126e+00   6.42000e+01   8.34266e-01   8.34266e-01   
7.41568e+00   5.19700e+01   6.67608e-01   6.67608e-01   
8.11015e+00   4.20000e+01   5.38052e-01   5.38052e-01   
8.85942e+00   3.38600e+01   4.30581e-01   4.30581e-01   
9.66876e+00   2.72400e+01   3.42199e-01   3.42199e-01   
1.05382e+01   2.19000e+01   2.75318e-01   2.75318e-01   
1.14866e+01   1.75800e+01   2.21359e-01   2.21359e-01   
1.24877e+01   1.41700e+01   1.78045e-01   1.78045e-01   
1.35362e+01   1.14800e+01   1.47986e-01   1.47986e-01   
1.46849e+01   9.26600e+00   1.18136e-01   1.18136e-01   
1.59337e+01   7.46000e+00   9.49263e-02   9.49263e-02   
1.72825e+01   5.99500e+00   7.64461e-02   7.64461e-02   
1.87315e+01   4.83200e+00   6.20484e-02   6.20484e-02   
2.02806e+01   3.89400e+00   5.02593e-02   5.02593e-02   
2.19297e+01   3.15100e+00   4.05956e-02   4.05956e-02   
2.37266e+01   2.53800e+00   3.24808e-02   3.24808e-02   
2.56760e+01   2.04000e+00   2.65141e-02   2.65141e-02   
2.77255e+01   1.65000e+00   2.11660e-02   2.11660e-02   
2.99228e+01   1.33500e+00   1.74069e-02   1.74069e-02   
3.22725e+01   1.08200e+00   1.44222e-02   1.44222e-02   
3.47700e+01   8.79100e-01   1.14730e-02   1.14730e-02   
3.74678e+01   7.13200e-01   9.35682e-03   9.35682e-03   
4.03656e+01   5.79300e-01   7.62299e-03   7.62299e-03   
4.34637e+01   4.71600e-01   6.21450e-03   6.21450e-03   
4.67619e+01   3.83900e-01   5.07740e-03   5.07740e-03   
5.03081e+01   3.12800e-01   4.16053e-03   4.16053e-03   
5.41067e+01   2.54900e-01   3.43366e-03   3.43366e-03   
5.81533e+01   2.08000e-01   2.78927e-03   2.78927e-03   
6.25001e+01   1.70100e-01   2.28910e-03   2.28910e-03   
6.71949e+01   1.39300e-01   1.86279e-03   1.86279e-03   
7.22423e+01   1.13200e-01   1.52315e-03   1.52315e-03   
7.76378e+01   9.26300e-02   1.26988e-03   1.26988e-03   
8.34335e+01   7.53000e-02   1.04216e-03   1.04216e-03   
8.96774e+01   6.14600e-02   8.55921e-04   8.55921e-04   
9.64217e+01   5.02600e-02   7.05053e-04   7.05053e-04   
1.03905e+02   4.08500e-02   5.82580e-04   5.82580e-04   
1.11912e+02   3.29400e-02   4.76550e-04   4.76550e-04   
1.20396e+02   2.69800e-02   3.95727e-04   3.95727e-04   
1.29881e+02   2.17400e-02   3.24808e-04   3.24808e-04   
1.40842e+02   1.72700e-02   2.69444e-04   2.69444e-04   
1.53330e+02   1.35800e-02   2.15407e-04   2.15407e-04   
1.67293e+02   1.06500e-02   1.68226e-04   1.68226e-04   
1.83257e+02   8.21200e-03   1.34570e-04   1.34570e-04   
2.01224e+02   6.29900e-03   1.05991e-04   1.05991e-04   
2.21664e+02   4.79300e-03   8.41249e-05   8.41249e-05   
2.45576e+02   3.60500e-03   6.56277e-05   6.56277e-05   
2.74426e+02   2.64700e-03   4.94672e-05   4.94672e-05   
3.09744e+02   1.88400e-03   3.76032e-05   3.76032e-05   
3.53455e+02   1.28800e-03   2.78927e-05   2.78927e-05   
4.08553e+02   8.69500e-04   1.98910e-05   1.98910e-05   
4.80744e+02   5.54500e-04   1.37106e-05   1.37106e-05   
5.80317e+02   3.35700e-04   9.36750e-06   9.36750e-06   
7.25736e+02   1.86000e-04   6.04318e-06   6.04318e-06   
9.60941e+02   8.57100e-05   3.58540e-06   3.58540e-06   
1.41726e+03   2.93300e-05   1.73364e-06   1.73364e-06   
