#Source: KCDC
#Ref: Antoni et al., Astroparticle Physics 24, 1 (2005)
#Experiment: KASCADE
#Quantity: H
#Units: total Energy
#Url: https://kcdc.ikp.kit.edu/spectra/
#Comments: 
1.12202e+06 4.67033e-13 3.83875e-14 3.83875e-14 0.00000e+00 0.00000e+00 
1.41254e+06 2.64603e-13 1.69303e-14 1.69303e-14 0.00000e+00 0.00000e+00 
1.77828e+06 1.70753e-13 9.34645e-15 9.34645e-15 0.00000e+00 0.00000e+00 
2.23872e+06 9.47760e-14 6.25672e-15 6.25672e-15 0.00000e+00 0.00000e+00 
2.81838e+06 4.05112e-14 3.38235e-15 3.38235e-15 0.00000e+00 0.00000e+00 
3.54813e+06 1.88293e-14 1.83556e-15 1.83556e-15 0.00000e+00 0.00000e+00 
4.46684e+06 9.47191e-15 1.15627e-15 1.15627e-15 0.00000e+00 0.00000e+00 
5.62341e+06 3.28296e-15 5.51683e-16 5.51683e-16 0.00000e+00 0.00000e+00 
7.07946e+06 8.75171e-16 3.07655e-16 3.07655e-16 0.00000e+00 0.00000e+00 
8.91251e+06 2.77655e-16 1.38544e-16 1.38544e-16 0.00000e+00 0.00000e+00 
1.12202e+07 9.66538e-17 5.49514e-17 5.49514e-17 0.00000e+00 0.00000e+00 
1.41254e+07 2.75322e-17 2.11089e-17 2.11089e-17 0.00000e+00 0.00000e+00 
1.77828e+07 1.04511e-17 9.63703e-18 9.63703e-18 0.00000e+00 0.00000e+00 
2.23872e+07 1.11055e-17 1.05907e-17 1.05907e-17 0.00000e+00 0.00000e+00 
2.81838e+07 4.46057e-18 6.13568e-18 6.13568e-18 0.00000e+00 0.00000e+00 
3.54813e+07 2.06731e-18 3.02878e-18 3.02878e-18 0.00000e+00 0.00000e+00 
4.46684e+07 3.14334e-18 3.08046e-18 3.08046e-18 0.00000e+00 0.00000e+00 
5.62341e+07 1.25330e-18 1.55004e-18 1.55004e-18 0.00000e+00 0.00000e+00 
7.07946e+07 2.23207e-19 7.28452e-19 7.28452e-19 0.00000e+00 0.00000e+00 
8.91251e+07 1.63138e-18 1.02970e-18 1.02970e-18 0.00000e+00 0.00000e+00 
