#Source: KCDC
#Ref: 
#Experiment: KASCADE
#Quantity: H
#Units: total Energy
#Url: https://kcdc.ikp.kit.edu/spectra/
#Comments: 
1.12202e+06 8.84526e-15 2.09965e-16 2.09965e-16 0.00000e+00 0.00000e+00 
1.41254e+06 4.85659e-15 1.13337e-16 1.13337e-16 0.00000e+00 0.00000e+00 
1.77828e+06 2.25235e-15 5.75123e-17 5.75123e-17 0.00000e+00 0.00000e+00 
2.23872e+06 8.73030e-16 2.61996e-17 2.61996e-17 0.00000e+00 0.00000e+00 
2.81838e+06 3.38348e-16 1.47169e-17 1.47169e-17 0.00000e+00 0.00000e+00 
3.54813e+06 1.54062e-16 1.01755e-17 1.01755e-17 0.00000e+00 0.00000e+00 
4.46684e+06 7.06978e-17 5.96033e-18 5.96033e-18 0.00000e+00 0.00000e+00 
5.62341e+06 2.79639e-17 2.56148e-18 2.56148e-18 0.00000e+00 0.00000e+00 
7.07946e+06 9.36485e-18 1.02546e-18 1.02546e-18 0.00000e+00 0.00000e+00 
8.91251e+06 3.06445e-18 4.24867e-19 4.24867e-19 0.00000e+00 0.00000e+00 
1.12202e+07 1.11949e-18 1.91790e-19 1.91790e-19 0.00000e+00 0.00000e+00 
1.41254e+07 3.08681e-19 7.77887e-20 7.77887e-20 0.00000e+00 0.00000e+00 
1.77828e+07 8.99950e-20 3.41626e-20 3.41626e-20 0.00000e+00 0.00000e+00 
2.23872e+07 5.53557e-20 1.69897e-20 1.69897e-20 0.00000e+00 0.00000e+00 
2.81838e+07 1.22018e-20 1.52335e-20 1.52335e-20 0.00000e+00 0.00000e+00 
3.54813e+07 1.75129e-21 1.58631e-20 1.58631e-20 0.00000e+00 0.00000e+00 
4.46684e+07 8.02675e-21 1.05020e-20 1.05020e-20 0.00000e+00 0.00000e+00 
5.62341e+07 2.78051e-20 1.60530e-20 1.60530e-20 0.00000e+00 0.00000e+00 
7.07946e+07 7.93306e-22 1.04781e-20 1.04781e-20 0.00000e+00 0.00000e+00 
8.91251e+07 4.54281e-21 6.73446e-21 6.73446e-21 0.00000e+00 0.00000e+00 
