#Source: KCDC
#Ref:  ()
#Experiment: KASCADE
#Quantity: H
#Units: total Energy
#Url: https://kcdc.ikp.kit.edu/spectra/
#Comments: 
1.11481e+06 3.31644e-13 7.64884e-15 7.64884e-15 0.00000e+00 0.00000e+00 
1.41254e+06 1.68230e-13 3.97529e-15 3.97529e-15 0.00000e+00 0.00000e+00 
1.77828e+06 8.05956e-14 1.94618e-15 1.94618e-15 0.00000e+00 0.00000e+00 
2.23872e+06 3.77643e-14 1.05449e-15 1.05449e-15 0.00000e+00 0.00000e+00 
2.81838e+06 1.79822e-14 7.12610e-16 7.12610e-16 0.00000e+00 0.00000e+00 
3.54813e+06 8.63312e-15 5.23723e-16 5.23723e-16 0.00000e+00 0.00000e+00 
4.46684e+06 3.93871e-15 3.22388e-16 3.22388e-16 0.00000e+00 0.00000e+00 
5.62341e+06 1.60517e-15 1.82691e-16 1.82691e-16 0.00000e+00 0.00000e+00 
7.07946e+06 6.04346e-16 9.08006e-17 9.08006e-17 0.00000e+00 0.00000e+00 
8.91251e+06 2.48655e-16 4.59249e-17 4.59249e-17 0.00000e+00 0.00000e+00 
1.12202e+07 9.76616e-17 2.32728e-17 2.32728e-17 0.00000e+00 0.00000e+00 
1.41254e+07 3.06766e-17 1.03549e-17 1.03549e-17 0.00000e+00 0.00000e+00 
1.77828e+07 1.67931e-17 7.74247e-18 7.74247e-18 0.00000e+00 0.00000e+00 
2.23872e+07 9.80834e-18 4.58773e-18 4.58773e-18 0.00000e+00 0.00000e+00 
2.81838e+07 2.31056e-18 1.38018e-18 1.38018e-18 0.00000e+00 0.00000e+00 
3.54813e+07 1.01531e-18 1.28522e-18 1.28522e-18 0.00000e+00 0.00000e+00 
4.46684e+07 5.55446e-18 1.97429e-18 1.97429e-18 0.00000e+00 0.00000e+00 
5.62341e+07 5.22194e-19 1.71125e-18 1.71125e-18 0.00000e+00 0.00000e+00 
7.07946e+07 2.79607e-19 9.71522e-19 9.71522e-19 0.00000e+00 0.00000e+00 
8.91251e+07 1.01204e-18 6.43220e-19 6.43220e-19 0.00000e+00 0.00000e+00 
