# credit: SSDC Cosmic Ray Database tools.asdc.asi.it/CosmicRays 
# rigidity [GV] - flux [] - flux_error_low [] - flux_error_high [] 
2.03099e+00   5.96800e+01   1.35900e+00   1.35900e+00   
2.27076e+00   5.57200e+01   8.87918e-01   8.87918e-01   
2.53056e+00   5.05000e+01   7.14079e-01   7.14079e-01   
2.81508e+00   4.56100e+01   6.15512e-01   6.15512e-01   
3.12495e+00   4.06600e+01   5.45582e-01   5.45582e-01   
3.45955e+00   3.56500e+01   4.84907e-01   4.84907e-01   
3.82418e+00   3.08500e+01   4.27131e-01   4.27131e-01   
4.21886e+00   2.64000e+01   3.70513e-01   3.70513e-01   
4.64829e+00   2.23300e+01   3.15603e-01   3.15603e-01   
5.11777e+00   1.87000e+01   2.64213e-01   2.64213e-01   
5.62731e+00   1.55200e+01   2.17940e-01   2.17940e-01   
6.17690e+00   1.28200e+01   1.78265e-01   1.78265e-01   
6.77126e+00   1.05400e+01   1.44729e-01   1.44729e-01   
7.41568e+00   8.63300e+00   1.17036e-01   1.17036e-01   
8.11015e+00   7.06800e+00   9.47151e-02   9.47151e-02   
8.85942e+00   5.77000e+00   7.65595e-02   7.65595e-02   
9.66876e+00   4.71600e+00   6.21123e-02   6.21123e-02   
1.05382e+01   3.84200e+00   5.03741e-02   5.03741e-02   
1.14866e+01   3.12100e+00   4.08280e-02   4.08280e-02   
1.24877e+01   2.55000e+00   3.33392e-02   3.33392e-02   
1.35362e+01   2.08600e+00   2.72888e-02   2.72888e-02   
1.46849e+01   1.70100e+00   2.22965e-02   2.22965e-02   
1.59337e+01   1.38600e+00   1.81945e-02   1.81945e-02   
1.72825e+01   1.12500e+00   1.48055e-02   1.48055e-02   
1.87315e+01   9.15100e-01   1.20839e-02   1.20839e-02   
2.02806e+01   7.42300e-01   9.83074e-03   9.83074e-03   
2.19297e+01   6.04700e-01   8.03587e-03   8.03587e-03   
2.37266e+01   4.92500e-01   6.56558e-03   6.56558e-03   
2.56760e+01   3.99600e-01   5.34749e-03   5.34749e-03   
2.77255e+01   3.26300e-01   4.38169e-03   4.38169e-03   
2.99228e+01   2.66200e-01   3.58873e-03   3.58873e-03   
3.22725e+01   2.17400e-01   2.94194e-03   2.94194e-03   
3.47700e+01   1.78000e-01   2.41955e-03   2.41955e-03   
3.74678e+01   1.45700e-01   1.98707e-03   1.98707e-03   
4.03656e+01   1.18900e-01   1.62835e-03   1.62835e-03   
4.34637e+01   9.73200e-02   1.33841e-03   1.33841e-03   
4.67619e+01   8.01000e-02   1.10592e-03   1.10592e-03   
5.03081e+01   6.53600e-02   9.05970e-04   9.05970e-04   
5.41067e+01   5.38000e-02   7.48583e-04   7.48583e-04   
5.81533e+01   4.42300e-02   6.17560e-04   6.17560e-04   
6.25001e+01   3.63300e-02   5.09196e-04   5.09196e-04   
6.71949e+01   2.98600e-02   4.20025e-04   4.20025e-04   
7.22423e+01   2.45800e-02   3.46978e-04   3.46978e-04   
7.76378e+01   2.02000e-02   2.86203e-04   2.86203e-04   
8.34335e+01   1.65600e-02   2.35523e-04   2.35523e-04   
8.96774e+01   1.36200e-02   1.94580e-04   1.94580e-04   
9.64217e+01   1.12500e-02   1.61358e-04   1.61358e-04   
1.03905e+02   9.16900e-03   1.32150e-04   1.32150e-04   
1.11912e+02   7.47000e-03   1.08493e-04   1.08493e-04   
1.20396e+02   6.09200e-03   8.90767e-05   8.90767e-05   
1.29881e+02   4.95700e-03   7.31107e-05   7.31107e-05   
1.40842e+02   3.96100e-03   5.89631e-05   5.89631e-05   
1.53330e+02   3.14600e-03   4.75004e-05   4.75004e-05   
1.67293e+02   2.48900e-03   3.81600e-05   3.81600e-05   
1.83257e+02   1.92900e-03   3.01340e-05   3.01340e-05   
2.01224e+02   1.50400e-03   2.40297e-05   2.40297e-05   
2.21664e+02   1.14600e-03   1.87801e-05   1.87801e-05   
2.45576e+02   8.72100e-04   1.47134e-05   1.47134e-05   
2.74426e+02   6.45300e-04   1.12780e-05   1.12780e-05   
3.09744e+02   4.67300e-04   8.54209e-06   8.54209e-06   
3.53455e+02   3.29900e-04   6.37059e-06   6.37059e-06   
4.08553e+02   2.22100e-04   4.59245e-06   4.59245e-06   
4.80744e+02   1.44500e-04   3.24661e-06   3.24661e-06   
5.80317e+02   8.89000e-05   2.22641e-06   2.22641e-06   
7.25736e+02   4.85600e-05   1.40444e-06   1.40444e-06   
9.60941e+02   2.36800e-05   8.37790e-07   8.37790e-07   
1.41726e+03   8.54200e-06   4.21111e-07   4.21111e-07   
2.30632e+03   2.46300e-06   1.96109e-07   1.96109e-07   
