# credit: SSDC Cosmic Ray Database tools.asdc.asi.it/CosmicRays 
# rigidity [GV] - flux [] - flux_error_low [] - flux_error_high [] 
2.02915e+00   5.96800e+01   1.35900e+00   1.35900e+00   
2.26882e+00   5.57200e+01   8.87918e-01   8.87918e-01   
2.52853e+00   5.05000e+01   7.14079e-01   7.14079e-01   
2.81282e+00   4.56100e+01   6.15512e-01   6.15512e-01   
3.12264e+00   4.06600e+01   5.45582e-01   5.45582e-01   
3.45704e+00   3.56500e+01   4.84907e-01   4.84907e-01   
3.82152e+00   3.08500e+01   4.27131e-01   4.27131e-01   
4.21605e+00   2.64000e+01   3.70513e-01   3.70513e-01   
4.64521e+00   2.23300e+01   3.15603e-01   3.15603e-01   
5.11446e+00   1.87000e+01   2.64213e-01   2.64213e-01   
5.62378e+00   1.55200e+01   2.17940e-01   2.17940e-01   
6.17318e+00   1.28200e+01   1.78265e-01   1.78265e-01   
6.76724e+00   1.05400e+01   1.44729e-01   1.44729e-01   
7.41139e+00   8.63300e+00   1.17036e-01   1.17036e-01   
8.10563e+00   7.06800e+00   9.47151e-02   9.47151e-02   
8.85456e+00   5.77000e+00   7.65595e-02   7.65595e-02   
9.66360e+00   4.71600e+00   6.21123e-02   6.21123e-02   
1.05327e+01   3.84200e+00   5.03741e-02   5.03741e-02   
1.14804e+01   3.12100e+00   4.08280e-02   4.08280e-02   
1.24820e+01   2.55000e+00   3.33392e-02   3.33392e-02   
1.35299e+01   2.08600e+00   2.72888e-02   2.72888e-02   
1.46780e+01   1.70100e+00   2.22965e-02   2.22965e-02   
1.59262e+01   1.38600e+00   1.81945e-02   1.81945e-02   
1.72745e+01   1.12500e+00   1.48055e-02   1.48055e-02   
1.87230e+01   9.15100e-01   1.20839e-02   1.20839e-02   
2.02716e+01   7.42300e-01   9.83074e-03   9.83074e-03   
2.19204e+01   6.04700e-01   8.03587e-03   8.03587e-03   
2.37158e+01   4.92500e-01   6.56558e-03   6.56558e-03   
2.56650e+01   3.99600e-01   5.34749e-03   5.34749e-03   
2.77142e+01   3.26300e-01   4.38169e-03   4.38169e-03   
2.99103e+01   2.66200e-01   3.58873e-03   3.58873e-03   
3.22599e+01   2.17400e-01   2.94194e-03   2.94194e-03   
3.47563e+01   1.78000e-01   2.41955e-03   2.41955e-03   
3.74530e+01   1.45700e-01   1.98707e-03   1.98707e-03   
4.03499e+01   1.18900e-01   1.62835e-03   1.62835e-03   
4.34470e+01   9.73200e-02   1.33841e-03   1.33841e-03   
4.67444e+01   8.01000e-02   1.10592e-03   1.10592e-03   
5.02888e+01   6.53600e-02   9.05970e-04   9.05970e-04   
5.40868e+01   5.38000e-02   7.48583e-04   7.48583e-04   
5.81318e+01   4.42300e-02   6.17560e-04   6.17560e-04   
6.24772e+01   3.63300e-02   5.09196e-04   5.09196e-04   
6.71697e+01   2.98600e-02   4.20025e-04   4.20025e-04   
7.22158e+01   2.45800e-02   3.46978e-04   3.46978e-04   
7.76092e+01   2.02000e-02   2.86203e-04   2.86203e-04   
8.34030e+01   1.65600e-02   2.35523e-04   2.35523e-04   
8.96441e+01   1.36200e-02   1.94580e-04   1.94580e-04   
9.63857e+01   1.12500e-02   1.61358e-04   1.61358e-04   
1.03862e+02   9.16900e-03   1.32150e-04   1.32150e-04   
1.11871e+02   7.47000e-03   1.08493e-04   1.08493e-04   
1.20349e+02   6.09200e-03   8.90767e-05   8.90767e-05   
1.29827e+02   4.95700e-03   7.31107e-05   7.31107e-05   
1.40770e+02   3.96100e-03   5.89631e-05   5.89631e-05   
1.53252e+02   3.14600e-03   4.75004e-05   4.75004e-05   
1.67198e+02   2.48900e-03   3.81600e-05   3.81600e-05   
1.83146e+02   1.92900e-03   3.01340e-05   3.01340e-05   
2.01097e+02   1.50400e-03   2.40297e-05   2.40297e-05   
2.21509e+02   1.14600e-03   1.87801e-05   1.87801e-05   
2.45382e+02   8.72100e-04   1.47134e-05   1.47134e-05   
2.74162e+02   6.45300e-04   1.12780e-05   1.12780e-05   
3.09398e+02   4.67300e-04   8.54209e-06   8.54209e-06   
3.52976e+02   3.29900e-04   6.37059e-06   6.37059e-06   
4.07890e+02   2.22100e-04   4.59245e-06   4.59245e-06   
4.79711e+02   1.44500e-04   3.24661e-06   3.24661e-06   
5.78631e+02   8.89000e-05   2.22641e-06   2.22641e-06   
7.22647e+02   4.85600e-05   1.40444e-06   1.40444e-06   
9.54090e+02   2.36800e-05   8.37790e-07   8.37790e-07   
1.39579e+03   8.54200e-06   4.21111e-07   4.21111e-07   
2.26437e+03   2.46300e-06   1.96109e-07   1.96109e-07   
