#Source: KCDC
#Ref: 
#Experiment: KASCADE
#Quantity: He
#Units: total Energy
#Url: https://kcdc.ikp.kit.edu/spectra/
#Comments: 
1.12202e+06 1.25870e-12 4.55880e-14 4.55880e-14 0.00000e+00 0.00000e+00 
1.41254e+06 6.30847e-13 2.93916e-14 2.93916e-14 0.00000e+00 0.00000e+00 
1.77828e+06 3.69448e-13 1.84888e-14 1.84888e-14 0.00000e+00 0.00000e+00 
2.23872e+06 1.96700e-13 8.72894e-15 8.72894e-15 0.00000e+00 0.00000e+00 
2.81838e+06 9.89083e-14 5.53145e-15 5.53145e-15 0.00000e+00 0.00000e+00 
3.54813e+06 6.09425e-14 3.68161e-15 3.68161e-15 0.00000e+00 0.00000e+00 
4.46684e+06 2.97882e-14 1.88597e-15 1.88597e-15 0.00000e+00 0.00000e+00 
5.62341e+06 1.58516e-14 1.28185e-15 1.28185e-15 0.00000e+00 0.00000e+00 
7.07946e+06 7.53891e-15 7.38481e-16 7.38481e-16 0.00000e+00 0.00000e+00 
8.91251e+06 4.48702e-15 5.00343e-16 5.00343e-16 0.00000e+00 0.00000e+00 
1.12202e+07 2.02294e-15 2.72446e-16 2.72446e-16 0.00000e+00 0.00000e+00 
1.41254e+07 6.53489e-16 1.44465e-16 1.44465e-16 0.00000e+00 0.00000e+00 
1.77828e+07 3.05369e-16 8.95103e-17 8.95103e-17 0.00000e+00 0.00000e+00 
2.23872e+07 1.66866e-16 5.61072e-17 5.61072e-17 0.00000e+00 0.00000e+00 
2.81838e+07 3.64664e-17 2.34331e-17 2.34331e-17 0.00000e+00 0.00000e+00 
3.54813e+07 9.84004e-18 1.04099e-17 1.04099e-17 0.00000e+00 0.00000e+00 
4.46684e+07 6.65664e-19 1.97503e-18 1.97503e-18 0.00000e+00 0.00000e+00 
5.62341e+07 1.42367e-19 1.22992e-18 1.22992e-18 0.00000e+00 0.00000e+00 
7.07946e+07 0.00000e+00 8.08676e-19 8.08676e-19 0.00000e+00 0.00000e+00 
8.91251e+07 0.00000e+00 1.06312e-18 1.06312e-18 0.00000e+00 0.00000e+00 
