#Source: 
#Ref: 10.1051/epjconf/201714505003 (2017EPJWC.14505003D)
#Experiment: ARGO
#Quantity: light
#Units: total energy
#Url: 
#Comments: Table provided by G. Di Sciascio
1.77800e+04 6.12000e-08 4.83735e-09 4.04475e-09 6.00000e-10 6.00000e-10 
2.23900e+04 3.48000e-08 2.81603e-09 2.31948e-09 3.00000e-10 3.00000e-10 
2.81800e+04 1.92000e-08 1.51327e-09 1.31529e-09 2.00000e-10 2.00000e-10 
3.54800e+04 1.04000e-08 8.06226e-10 7.07107e-10 1.00000e-10 1.00000e-10 
4.46700e+04 5.62000e-09 4.44072e-10 3.74833e-10 6.00000e-11 6.00000e-11 
5.62400e+04 3.04000e-09 2.41868e-10 2.02237e-10 3.00000e-11 3.00000e-11 
7.07900e+04 1.68000e-09 1.31529e-10 1.11803e-10 2.00000e-11 2.00000e-11 
8.91300e+04 9.10000e-10 7.26911e-11 5.98415e-11 1.00000e-11 1.00000e-11 
1.12200e+05 5.22000e-10 4.14367e-11 3.45254e-11 6.00000e-12 6.00000e-12 
1.41250e+05 2.80000e-10 2.61725e-11 1.82483e-11 3.00000e-12 3.00000e-12 
1.77830e+05 1.54000e-10 1.81108e-11 1.01980e-11 2.00000e-12 2.00000e-12 
2.23870e+05 8.46000e-11 1.05683e-11 5.62939e-12 1.20000e-12 1.20000e-12 
2.81830e+05 4.54000e-11 6.47765e-12 5.09902e-12 1.00000e-12 1.00000e-12 
3.54810e+05 2.52000e-11 3.74833e-12 3.64966e-12 6.00000e-13 6.00000e-13 
4.46680e+05 1.37000e-11 2.12132e-12 1.92354e-12 3.00000e-13 3.00000e-13 
5.62340e+05 7.18000e-12 1.18377e-12 1.00623e-12 1.80000e-13 1.80000e-13 
7.07950e+05 3.66000e-12 6.19839e-13 5.02195e-13 1.10000e-13 1.10000e-13 
8.91250e+05 1.83000e-12 2.88617e-13 2.21359e-13 7.00000e-14 7.00000e-14 
1.12202e+06 8.25000e-13 1.34737e-13 1.02416e-13 4.50000e-14 4.50000e-14 
1.41254e+06 3.93000e-13 6.17414e-14 6.17414e-14 2.60000e-14 2.60000e-14 
1.77828e+06 1.68000e-13 3.54683e-14 3.64005e-14 1.30000e-14 1.30000e-14 
2.23872e+06 6.14000e-14 1.78037e-14 1.90421e-14 5.60000e-15 5.60000e-15 
2.81838e+06 2.14000e-14 8.92861e-15 8.83233e-15 2.40000e-15 2.40000e-15 
3.54813e+06 9.70000e-15 3.89853e-15 3.68680e-15 1.03000e-15 1.03000e-15 
