#Source: KCDC
#Ref: KASCADE-Grande Collaboration, ICRC Proc. 301, 316 (2017)
#Experiment: KASCADE-Grande
#Quantity: light
#Units: total Energy
#Url: https://kcdc.ikp.kit.edu/spectra/
#Comments: 
1.77828e+07 2.37233e-16 1.73624e-18 1.73624e-18 0.00000e+00 0.00000e+00 
2.23872e+07 1.22031e-16 9.61781e-19 9.61781e-19 0.00000e+00 0.00000e+00 
2.81838e+07 6.02271e-17 5.38428e-19 5.38428e-19 0.00000e+00 0.00000e+00 
3.54813e+07 2.77587e-17 3.25710e-19 3.25710e-19 0.00000e+00 0.00000e+00 
4.46684e+07 1.34099e-17 2.01759e-19 2.01759e-19 0.00000e+00 0.00000e+00 
5.62341e+07 6.73098e-18 1.27412e-19 1.27412e-19 0.00000e+00 0.00000e+00 
7.07946e+07 3.03511e-18 7.62617e-20 7.62617e-20 0.00000e+00 0.00000e+00 
8.91251e+07 1.46417e-18 4.72081e-20 4.72081e-20 0.00000e+00 0.00000e+00 
1.12202e+08 7.14532e-19 2.93931e-20 2.93931e-20 0.00000e+00 0.00000e+00 
1.41254e+08 3.65890e-19 1.87429e-20 1.87429e-20 0.00000e+00 0.00000e+00 
1.77828e+08 1.83084e-19 1.18163e-20 1.18163e-20 0.00000e+00 0.00000e+00 
2.23872e+08 8.54336e-20 7.19448e-21 7.19448e-21 0.00000e+00 0.00000e+00 
2.81838e+08 4.38010e-20 4.59112e-21 4.59112e-21 0.00000e+00 0.00000e+00 
3.54813e+08 2.21750e-20 2.91147e-21 2.91147e-21 0.00000e+00 0.00000e+00 
5.01187e+08 8.56802e-21 1.06277e-21 1.06277e-21 0.00000e+00 0.00000e+00 
7.94328e+08 1.58048e-21 3.62542e-22 3.62542e-22 0.00000e+00 0.00000e+00 
