# credit: SSDC Cosmic Ray Database tools.asdc.asi.it/CosmicRays 
# rigidity [GV] - flux [] - flux_error_low [] - flux_error_high [] 
2.26882e+00   3.08100e-01   2.29063e-02   2.29063e-02   
2.52853e+00   2.80800e-01   1.99299e-02   1.99299e-02   
2.81282e+00   2.49200e-01   1.71228e-02   1.71228e-02   
3.12264e+00   2.19300e-01   1.45739e-02   1.45739e-02   
3.45704e+00   1.95100e-01   1.26878e-02   1.26878e-02   
3.82152e+00   1.69200e-01   1.08646e-02   1.08646e-02   
4.21605e+00   1.46200e-01   9.23472e-03   9.23472e-03   
4.64521e+00   1.25100e-01   7.82815e-03   7.82815e-03   
5.11446e+00   1.07000e-01   6.61211e-03   6.61211e-03   
5.62378e+00   9.02800e-02   5.59563e-03   5.59563e-03   
6.17318e+00   7.50300e-02   4.63846e-03   4.63846e-03   
6.76724e+00   6.26600e-02   3.86097e-03   3.86097e-03   
7.41139e+00   5.20400e-02   3.20623e-03   3.20623e-03   
8.10563e+00   4.30700e-02   2.65026e-03   2.65026e-03   
8.85456e+00   3.54600e-02   2.18170e-03   2.18170e-03   
9.66360e+00   2.91400e-02   1.78807e-03   1.78807e-03   
1.05327e+01   2.40200e-02   1.47557e-03   1.47557e-03   
1.14804e+01   1.95300e-02   1.19766e-03   1.19766e-03   
1.24820e+01   1.60200e-02   9.83616e-04   9.83616e-04   
1.35299e+01   1.32000e-02   8.10309e-04   8.10309e-04   
1.46780e+01   1.09100e-02   6.71640e-04   6.71640e-04   
1.59262e+01   8.92400e-03   5.48725e-04   5.48725e-04   
1.72745e+01   7.27900e-03   4.46866e-04   4.46866e-04   
1.87230e+01   5.99200e-03   3.68767e-04   3.68767e-04   
2.02716e+01   4.87200e-03   2.99927e-04   2.99927e-04   
2.19204e+01   3.98400e-03   2.45495e-04   2.45495e-04   
2.37158e+01   3.25900e-03   2.01002e-04   2.01002e-04   
2.56650e+01   2.66500e-03   1.64521e-04   1.64521e-04   
2.77142e+01   2.18900e-03   1.35000e-04   1.35000e-04   
2.99103e+01   1.80900e-03   1.12446e-04   1.12446e-04   
3.22599e+01   1.48800e-03   9.21900e-05   9.21900e-05   
3.47563e+01   1.22500e-03   7.59671e-05   7.59671e-05   
3.74530e+01   1.00400e-03   6.26099e-05   6.26099e-05   
4.03499e+01   8.11300e-04   5.04029e-05   5.04029e-05   
4.34470e+01   6.82600e-04   4.25770e-05   4.25770e-05   
4.67444e+01   5.53400e-04   3.45203e-05   3.45203e-05   
5.02888e+01   4.56700e-04   2.85475e-05   2.85475e-05   
5.40868e+01   3.75200e-04   2.35644e-05   2.35644e-05   
5.81318e+01   3.09600e-04   1.93930e-05   1.93930e-05   
6.24772e+01   2.53200e-04   1.59116e-05   1.59116e-05   
6.71697e+01   2.07600e-04   1.31335e-05   1.31335e-05   
7.22158e+01   1.71400e-04   1.08646e-05   1.08646e-05   
7.76092e+01   1.36900e-04   8.65968e-06   8.65968e-06   
8.34030e+01   1.15700e-04   7.32393e-06   7.32393e-06   
8.96441e+01   9.42700e-05   5.99378e-06   5.99378e-06   
9.63857e+01   7.78300e-05   4.95416e-06   4.95416e-06   
1.03862e+02   6.22300e-05   3.96614e-06   3.96614e-06   
1.11871e+02   5.19900e-05   3.32148e-06   3.32148e-06   
1.20349e+02   4.26300e-05   2.72255e-06   2.72255e-06   
1.29827e+02   3.46500e-05   2.21716e-06   2.21716e-06   
1.40770e+02   2.73600e-05   1.75180e-06   1.75180e-06   
1.53252e+02   2.15400e-05   1.38568e-06   1.38568e-06   
1.67198e+02   1.67300e-05   1.07861e-06   1.07861e-06   
1.83146e+02   1.29500e-05   8.33487e-07   8.33487e-07   
2.01097e+02   1.02500e-05   6.71640e-07   6.71640e-07   
2.21509e+02   7.85700e-06   5.14174e-07   5.14174e-07   
2.45382e+02   5.95200e-06   3.92885e-07   3.92885e-07   
2.74162e+02   4.30500e-06   2.87592e-07   2.87592e-07   
3.09398e+02   3.24700e-06   2.19752e-07   2.19752e-07   
3.52976e+02   2.17900e-06   1.50426e-07   1.50426e-07   
4.07890e+02   1.41600e-06   1.00807e-07   1.00807e-07   
4.79711e+02   9.37800e-07   6.97853e-08   6.97853e-08   
5.85572e+02   6.08300e-07   4.88456e-08   4.88456e-08   
7.48143e+02   2.84100e-07   2.58170e-08   2.58170e-08   
1.00470e+03   1.38500e-07   1.54081e-08   1.54081e-08   
1.74791e+03   2.52900e-08   3.44680e-09   3.44680e-09   
