# credit: SSDC Cosmic Ray Database tools.asdc.asi.it/CosmicRays 
# rigidity [GV] - flux [] - flux_error_low [] - flux_error_high [] 
2.26882e+00   3.08100e-01   1.87806e-02   1.87806e-02   
2.52853e+00   2.80800e-01   1.63215e-02   1.63215e-02   
2.81282e+00   2.49200e-01   1.40064e-02   1.40064e-02   
3.12264e+00   2.19300e-01   1.19436e-02   1.19436e-02   
3.45704e+00   1.95100e-01   1.04010e-02   1.04010e-02   
3.82152e+00   1.69200e-01   8.87187e-03   8.87187e-03   
4.21605e+00   1.46200e-01   7.57892e-03   7.57892e-03   
4.64521e+00   1.25100e-01   6.41794e-03   6.41794e-03   
5.11446e+00   1.07000e-01   5.41941e-03   5.41941e-03   
5.62378e+00   9.02800e-02   4.57846e-03   4.57846e-03   
6.17318e+00   7.50300e-02   3.79348e-03   3.79348e-03   
6.76724e+00   6.26600e-02   3.15820e-03   3.15820e-03   
7.41139e+00   5.20400e-02   2.62355e-03   2.62355e-03   
8.10563e+00   4.30700e-02   2.16855e-03   2.16855e-03   
8.85456e+00   3.54600e-02   1.78446e-03   1.78446e-03   
9.66360e+00   2.91400e-02   1.46503e-03   1.46503e-03   
1.05327e+01   2.40200e-02   1.20880e-03   1.20880e-03   
1.14804e+01   1.95300e-02   9.81428e-04   9.81428e-04   
1.24820e+01   1.60200e-02   8.03866e-04   8.03866e-04   
1.35299e+01   1.32000e-02   6.61967e-04   6.61967e-04   
1.46780e+01   1.09100e-02   5.49090e-04   5.49090e-04   
1.59262e+01   8.92400e-03   4.49590e-04   4.49590e-04   
1.72745e+01   7.27900e-03   3.66352e-04   3.66352e-04   
1.87230e+01   5.99200e-03   3.02331e-04   3.02331e-04   
2.02716e+01   4.87200e-03   2.46177e-04   2.46177e-04   
2.19204e+01   3.98400e-03   2.01256e-04   2.01256e-04   
2.37158e+01   3.25900e-03   1.64930e-04   1.64930e-04   
2.56650e+01   2.66500e-03   1.35048e-04   1.35048e-04   
2.77142e+01   2.18900e-03   1.10838e-04   1.10838e-04   
2.99103e+01   1.80900e-03   9.22984e-05   9.22984e-05   
3.22599e+01   1.48800e-03   7.59671e-05   7.59671e-05   
3.47563e+01   1.22500e-03   6.23217e-05   6.23217e-05   
3.74530e+01   1.00400e-03   5.15752e-05   5.15752e-05   
4.03499e+01   8.11300e-04   4.15331e-05   4.15331e-05   
4.34470e+01   6.82600e-04   3.51090e-05   3.51090e-05   
4.67444e+01   5.53400e-04   2.85330e-05   2.85330e-05   
5.02888e+01   4.56700e-04   2.36040e-05   2.36040e-05   
5.40868e+01   3.75200e-04   1.95246e-05   1.95246e-05   
5.81318e+01   3.09600e-04   1.60953e-05   1.60953e-05   
6.24772e+01   2.53200e-04   1.32401e-05   1.32401e-05   
6.71697e+01   2.07600e-04   1.09348e-05   1.09348e-05   
7.22158e+01   1.71400e-04   9.05318e-06   9.05318e-06   
7.76092e+01   1.36900e-04   7.27186e-06   7.27186e-06   
8.34030e+01   1.15700e-04   6.18466e-06   6.18466e-06   
8.96441e+01   9.42700e-05   5.06141e-06   5.06141e-06   
9.63857e+01   7.78300e-05   4.20012e-06   4.20012e-06   
1.03862e+02   6.22300e-05   3.37471e-06   3.37471e-06   
1.11871e+02   5.19900e-05   2.84348e-06   2.84348e-06   
1.20349e+02   4.26300e-05   2.34414e-06   2.34414e-06   
1.29827e+02   3.46500e-05   1.91685e-06   1.91685e-06   
1.40770e+02   2.73600e-05   1.51947e-06   1.51947e-06   
1.53252e+02   2.15400e-05   1.21396e-06   1.21396e-06   
1.67198e+02   1.67300e-05   9.53205e-07   9.53205e-07   
1.83146e+02   1.29500e-05   7.44513e-07   7.44513e-07   
2.01097e+02   1.02500e-05   6.01249e-07   6.01249e-07   
2.21509e+02   7.85700e-06   4.66235e-07   4.66235e-07   
2.45382e+02   5.95200e-06   3.59269e-07   3.59269e-07   
2.74162e+02   4.30500e-06   2.66041e-07   2.66041e-07   
3.09398e+02   3.24700e-06   2.04367e-07   2.04367e-07   
3.52976e+02   2.17900e-06   1.42278e-07   1.42278e-07   
4.07890e+02   1.41600e-06   9.69484e-08   9.69484e-08   
4.79711e+02   9.37800e-07   6.73936e-08   6.73936e-08   
5.85572e+02   6.08300e-07   4.59898e-08   4.59898e-08   
7.48143e+02   2.84100e-07   2.47168e-08   2.47168e-08   
1.00470e+03   1.38500e-07   1.43461e-08   1.43461e-08   
1.74791e+03   2.52900e-08   4.26149e-09   4.26149e-09   
