# credit: SSDC Cosmic Ray Database tools.asdc.asi.it/CosmicRays 
# rigidity [GV] - flux [] - flux_error_low [] - flux_error_high [] 
2.26882e+00   1.38500e+00   4.75377e-02   4.75377e-02   
2.52853e+00   1.29500e+00   4.13727e-02   4.13727e-02   
2.81282e+00   1.18500e+00   3.59875e-02   3.59875e-02   
3.12264e+00   1.06500e+00   3.11369e-02   3.11369e-02   
3.45704e+00   9.36700e-01   2.66192e-02   2.66192e-02   
3.82152e+00   8.14800e-01   2.26977e-02   2.26977e-02   
4.21605e+00   7.00400e-01   1.92331e-02   1.92331e-02   
4.64521e+00   5.98900e-01   1.62835e-02   1.62835e-02   
5.11446e+00   5.07600e-01   1.37201e-02   1.37201e-02   
5.62378e+00   4.26800e-01   1.14910e-02   1.14910e-02   
6.17318e+00   3.57000e-01   9.59704e-03   9.59704e-03   
6.76724e+00   2.96700e-01   7.97138e-03   7.97138e-03   
7.41139e+00   2.45100e-01   6.58976e-03   6.58976e-03   
8.10563e+00   2.03200e-01   5.46775e-03   5.46775e-03   
8.85456e+00   1.67700e-01   4.51990e-03   4.51990e-03   
9.66360e+00   1.38000e-01   3.72574e-03   3.72574e-03   
1.05327e+01   1.13100e-01   3.06064e-03   3.06064e-03   
1.14804e+01   9.28500e-02   2.51710e-03   2.51710e-03   
1.24820e+01   7.67000e-02   2.08400e-03   2.08400e-03   
1.35299e+01   6.33600e-02   1.72469e-03   1.72469e-03   
1.46780e+01   5.17900e-02   1.41272e-03   1.41272e-03   
1.59262e+01   4.28800e-02   1.17231e-03   1.17231e-03   
1.72745e+01   3.51800e-02   9.63892e-04   9.63892e-04   
1.87230e+01   2.89600e-02   7.95375e-04   7.95375e-04   
2.02716e+01   2.38100e-02   6.55639e-04   6.55639e-04   
2.19204e+01   1.95500e-02   5.39574e-04   5.39574e-04   
2.37158e+01   1.61300e-02   4.46354e-04   4.46354e-04   
2.56650e+01   1.31900e-02   3.65932e-04   3.65932e-04   
2.77142e+01   1.08100e-02   3.01071e-04   3.01071e-04   
2.99103e+01   8.92700e-03   2.49334e-04   2.49334e-04   
3.22599e+01   7.36400e-03   2.06489e-04   2.06489e-04   
3.47563e+01   6.06800e-03   1.70882e-04   1.70882e-04   
3.74530e+01   4.99000e-03   1.41167e-04   1.41167e-04   
4.03499e+01   4.07900e-03   1.15921e-04   1.15921e-04   
4.34470e+01   3.37300e-03   9.63928e-05   9.63928e-05   
4.67444e+01   2.78300e-03   8.00001e-05   8.00001e-05   
5.02888e+01   2.31400e-03   6.68947e-05   6.68947e-05   
5.40868e+01   1.90900e-03   5.55388e-05   5.55388e-05   
5.81318e+01   1.55700e-03   4.56225e-05   4.56225e-05   
6.24772e+01   1.29000e-03   3.80745e-05   3.80745e-05   
6.71697e+01   1.06400e-03   3.16145e-05   3.16145e-05   
7.22158e+01   8.61100e-04   2.58086e-05   2.58086e-05   
7.76092e+01   7.16000e-04   2.16405e-05   2.16405e-05   
8.34030e+01   5.93300e-04   1.80880e-05   1.80880e-05   
8.96441e+01   4.82200e-04   1.48447e-05   1.48447e-05   
9.63857e+01   3.94200e-04   1.22520e-05   1.22520e-05   
1.03862e+02   3.24100e-04   1.01586e-05   1.01586e-05   
1.11871e+02   2.67600e-04   8.50361e-06   8.50361e-06   
1.20349e+02   2.18200e-04   7.00500e-06   7.00500e-06   
1.29827e+02   1.78100e-04   5.78380e-06   5.78380e-06   
1.40770e+02   1.44900e-04   4.74710e-06   4.74710e-06   
1.53252e+02   1.12200e-04   3.73932e-06   3.73932e-06   
1.67198e+02   8.90400e-05   3.01161e-06   3.01161e-06   
1.83146e+02   7.03600e-05   2.42214e-06   2.42214e-06   
2.01097e+02   5.58000e-05   1.95955e-06   1.95955e-06   
2.21509e+02   4.18900e-05   1.50622e-06   1.50622e-06   
2.45382e+02   3.17000e-05   1.16800e-06   1.16800e-06   
2.74162e+02   2.37000e-05   8.96769e-07   8.96769e-07   
3.09398e+02   1.70400e-05   6.68535e-07   6.68535e-07   
3.52976e+02   1.22300e-05   4.99776e-07   4.99776e-07   
4.07890e+02   8.22400e-06   3.56010e-07   3.56010e-07   
4.79711e+02   5.25600e-06   2.44521e-07   2.44521e-07   
5.78631e+02   3.12200e-06   1.60428e-07   1.60428e-07   
7.22647e+02   1.75000e-06   1.02401e-07   1.02401e-07   
9.54090e+02   8.67500e-07   6.05528e-08   6.05528e-08   
1.39579e+03   3.29400e-07   3.15315e-08   3.15315e-08   
2.26437e+03   9.65900e-08   1.29361e-08   1.29361e-08   
