# credit: SSDC Cosmic Ray Database tools.asdc.asi.it/CosmicRays 
# rigidity [GV] - flux [] - flux_error_low [] - flux_error_high [] 
2.26882e+00   1.38500e+00   6.71312e-02   6.71312e-02   
2.52853e+00   1.29500e+00   5.84302e-02   5.84302e-02   
2.81282e+00   1.18500e+00   5.08321e-02   5.08321e-02   
3.12264e+00   1.06500e+00   4.39728e-02   4.39728e-02   
3.45704e+00   9.36700e-01   3.76034e-02   3.76034e-02   
3.82152e+00   8.14800e-01   3.20586e-02   3.20586e-02   
4.21605e+00   7.00400e-01   2.71693e-02   2.71693e-02   
4.64521e+00   5.98900e-01   2.30047e-02   2.30047e-02   
5.11446e+00   5.07600e-01   1.93819e-02   1.93819e-02   
5.62378e+00   4.26800e-01   1.62359e-02   1.62359e-02   
6.17318e+00   3.57000e-01   1.35567e-02   1.35567e-02   
6.76724e+00   2.96700e-01   1.12610e-02   1.12610e-02   
7.41139e+00   2.45100e-01   9.30890e-03   9.30890e-03   
8.10563e+00   2.03200e-01   7.72427e-03   7.72427e-03   
8.85456e+00   1.67700e-01   6.38511e-03   6.38511e-03   
9.66360e+00   1.38000e-01   5.26282e-03   5.26282e-03   
1.05327e+01   1.13100e-01   4.32229e-03   4.32229e-03   
1.14804e+01   9.28500e-02   3.55470e-03   3.55470e-03   
1.24820e+01   7.67000e-02   2.94227e-03   2.94227e-03   
1.35299e+01   6.33600e-02   2.43506e-03   2.43506e-03   
1.46780e+01   5.17900e-02   1.99384e-03   1.99384e-03   
1.59262e+01   4.28800e-02   1.65415e-03   1.65415e-03   
1.72745e+01   3.51800e-02   1.36012e-03   1.36012e-03   
1.87230e+01   2.89600e-02   1.12216e-03   1.12216e-03   
2.02716e+01   2.38100e-02   9.24856e-04   9.24856e-04   
2.19204e+01   1.95500e-02   7.61043e-04   7.61043e-04   
2.37158e+01   1.61300e-02   6.29577e-04   6.29577e-04   
2.56650e+01   1.31900e-02   5.16071e-04   5.16071e-04   
2.77142e+01   1.08100e-02   4.24529e-04   4.24529e-04   
2.99103e+01   8.92700e-03   3.51528e-04   3.51528e-04   
3.22599e+01   7.36400e-03   2.91039e-04   2.91039e-04   
3.47563e+01   6.06800e-03   2.40759e-04   2.40759e-04   
3.74530e+01   4.99000e-03   1.98817e-04   1.98817e-04   
4.03499e+01   4.07900e-03   1.63217e-04   1.63217e-04   
4.34470e+01   3.37300e-03   1.35599e-04   1.35599e-04   
4.67444e+01   2.78300e-03   1.12460e-04   1.12460e-04   
5.02888e+01   2.31400e-03   9.39869e-05   9.39869e-05   
5.40868e+01   1.90900e-03   7.79598e-05   7.79598e-05   
5.81318e+01   1.55700e-03   6.39830e-05   6.39830e-05   
6.24772e+01   1.29000e-03   5.33426e-05   5.33426e-05   
6.71697e+01   1.06400e-03   4.42562e-05   4.42562e-05   
7.22158e+01   8.61100e-04   3.60781e-05   3.60781e-05   
7.76092e+01   7.16000e-04   3.02106e-05   3.02106e-05   
8.34030e+01   5.93300e-04   2.52166e-05   2.52166e-05   
8.96441e+01   4.82200e-04   2.06606e-05   2.06606e-05   
9.63857e+01   3.94200e-04   1.70242e-05   1.70242e-05   
1.03862e+02   3.24100e-04   1.41027e-05   1.41027e-05   
1.11871e+02   2.67600e-04   1.17654e-05   1.17654e-05   
1.20349e+02   2.18200e-04   9.67742e-06   9.67742e-06   
1.29827e+02   1.78100e-04   7.97586e-06   7.97586e-06   
1.40770e+02   1.44900e-04   6.54515e-06   6.54515e-06   
1.53252e+02   1.12200e-04   5.13546e-06   5.13546e-06   
1.67198e+02   8.90400e-05   4.12853e-06   4.12853e-06   
1.83146e+02   7.03600e-05   3.31207e-06   3.31207e-06   
2.01097e+02   5.58000e-05   2.67165e-06   2.67165e-06   
2.21509e+02   4.18900e-05   2.04620e-06   2.04620e-06   
2.45382e+02   3.17000e-05   1.58267e-06   1.58267e-06   
2.74162e+02   2.37000e-05   1.21340e-06   1.21340e-06   
3.09398e+02   1.70400e-05   9.01980e-07   9.01980e-07   
3.52976e+02   1.22300e-05   6.73586e-07   6.73586e-07   
4.07890e+02   8.22400e-06   4.78622e-07   4.78622e-07   
4.79711e+02   5.25600e-06   3.28723e-07   3.28723e-07   
5.78631e+02   3.12200e-06   2.15843e-07   2.15843e-07   
7.22647e+02   1.75000e-06   1.38437e-07   1.38437e-07   
9.54090e+02   8.67500e-07   8.25188e-08   8.25188e-08   
1.39579e+03   3.29400e-07   3.81470e-08   3.81470e-08   
2.26437e+03   9.65900e-08   1.56986e-08   1.56986e-08   
