# credit: SSDC Cosmic Ray Database tools.asdc.asi.it/CosmicRays 
# rigidity [GV] - flux [] - flux_error_low [] - flux_error_high [] 
2.26882e+00   2.17200e-01   2.39295e-02   2.39295e-02   
2.52853e+00   2.01200e-01   1.64593e-02   1.64593e-02   
2.81282e+00   1.82600e-01   1.31981e-02   1.31981e-02   
3.12264e+00   1.63500e-01   1.14599e-02   1.14599e-02   
3.45704e+00   1.45400e-01   9.91464e-03   9.91464e-03   
3.82152e+00   1.26300e-01   8.48941e-03   8.48941e-03   
4.21605e+00   1.08500e-01   7.14703e-03   7.14703e-03   
4.64521e+00   9.37300e-02   6.14488e-03   6.14488e-03   
5.11446e+00   7.90600e-02   5.14346e-03   5.14346e-03   
5.62378e+00   6.63700e-02   4.29992e-03   4.29992e-03   
6.17318e+00   5.65600e-02   3.65508e-03   3.65508e-03   
6.76724e+00   4.72100e-02   3.04615e-03   3.04615e-03   
7.41139e+00   3.97700e-02   2.56462e-03   2.56462e-03   
8.10563e+00   3.25100e-02   2.09559e-03   2.09559e-03   
8.85456e+00   2.71700e-02   1.74788e-03   1.74788e-03   
9.66360e+00   2.24700e-02   1.44108e-03   1.44108e-03   
1.05327e+01   1.85900e-02   1.19766e-03   1.19766e-03   
1.14804e+01   1.52300e-02   9.84073e-04   9.84073e-04   
1.24820e+01   1.26000e-02   8.10309e-04   8.10309e-04   
1.35299e+01   1.04600e-02   6.76831e-04   6.76831e-04   
1.46780e+01   8.55100e-03   5.50442e-04   5.50442e-04   
1.59262e+01   7.03600e-03   4.53815e-04   4.53815e-04   
1.72745e+01   5.75900e-03   3.71059e-04   3.71059e-04   
1.87230e+01   4.73500e-03   3.05108e-04   3.05108e-04   
2.02716e+01   3.91600e-03   2.52976e-04   2.52976e-04   
2.19204e+01   3.20000e-03   2.06131e-04   2.06131e-04   
2.37158e+01   2.62300e-03   1.69650e-04   1.69650e-04   
2.56650e+01   2.17100e-03   1.40125e-04   1.40125e-04   
2.77142e+01   1.79900e-03   1.16413e-04   1.16413e-04   
2.99103e+01   1.48700e-03   9.67368e-05   9.67368e-05   
3.22599e+01   1.23100e-03   7.99312e-05   7.99312e-05   
3.47563e+01   1.01200e-03   6.60076e-05   6.60076e-05   
3.74530e+01   8.44600e-04   5.48584e-05   5.48584e-05   
4.03499e+01   6.88700e-04   4.47240e-05   4.47240e-05   
4.34470e+01   5.68100e-04   3.70192e-05   3.70192e-05   
4.67444e+01   4.77600e-04   3.11726e-05   3.11726e-05   
5.02888e+01   3.95100e-04   2.57924e-05   2.57924e-05   
5.40868e+01   3.24500e-04   2.12695e-05   2.12695e-05   
5.81318e+01   2.60300e-04   1.70974e-05   1.70974e-05   
6.24772e+01   2.22500e-04   1.45540e-05   1.45540e-05   
6.71697e+01   1.81300e-04   1.19411e-05   1.19411e-05   
7.22158e+01   1.49300e-04   9.85850e-06   9.85850e-06   
7.76092e+01   1.23200e-04   8.12096e-06   8.12096e-06   
8.34030e+01   1.02500e-04   6.78528e-06   6.78528e-06   
8.96441e+01   8.45800e-05   5.61187e-06   5.61187e-06   
9.63857e+01   6.66500e-05   4.43443e-06   4.43443e-06   
1.03862e+02   5.72500e-05   3.81479e-06   3.81479e-06   
1.11871e+02   4.46900e-05   2.97916e-06   2.97916e-06   
1.20349e+02   3.82000e-05   2.56205e-06   2.56205e-06   
1.29827e+02   3.05900e-05   2.04509e-06   2.04509e-06   
1.40770e+02   2.34800e-05   1.57480e-06   1.57480e-06   
1.53252e+02   1.93400e-05   1.30269e-06   1.30269e-06   
1.67198e+02   1.56600e-05   1.05958e-06   1.05958e-06   
1.83146e+02   1.19900e-05   8.15537e-07   8.15537e-07   
2.01097e+02   9.19100e-06   6.29199e-07   6.29199e-07   
2.21509e+02   6.88000e-06   4.74753e-07   4.74753e-07   
2.45382e+02   5.59500e-06   3.89583e-07   3.89583e-07   
2.74162e+02   3.90700e-06   2.74938e-07   2.74938e-07   
3.09398e+02   2.75700e-06   1.97041e-07   1.97041e-07   
3.52976e+02   1.96000e-06   1.42397e-07   1.42397e-07   
4.07890e+02   1.38700e-06   1.04163e-07   1.04163e-07   
4.79711e+02   8.39700e-07   6.56293e-08   6.56293e-08   
5.85572e+02   5.29500e-07   4.43741e-08   4.43741e-08   
7.48143e+02   2.73200e-07   2.58062e-08   2.58062e-08   
1.00470e+03   1.14600e-07   1.31408e-08   1.31408e-08   
1.74791e+03   1.99900e-08   2.77031e-09   2.77031e-09   
