# credit: SSDC Cosmic Ray Database tools.asdc.asi.it/CosmicRays 
# rigidity [GV] - flux [] - flux_error_low [] - flux_error_high [] 
2.26882e+00   2.17200e-01   1.95926e-02   1.95926e-02   
2.52853e+00   2.01200e-01   1.34859e-02   1.34859e-02   
2.81282e+00   1.82600e-01   1.08277e-02   1.08277e-02   
3.12264e+00   1.63500e-01   9.40266e-03   9.40266e-03   
3.45704e+00   1.45400e-01   8.13449e-03   8.13449e-03   
3.82152e+00   1.26300e-01   6.95054e-03   6.95054e-03   
4.21605e+00   1.08500e-01   5.86771e-03   5.86771e-03   
4.64521e+00   9.37300e-02   5.02930e-03   5.02930e-03   
5.11446e+00   7.90600e-02   4.21002e-03   4.21002e-03   
5.62378e+00   6.63700e-02   3.52156e-03   3.52156e-03   
6.17318e+00   5.65600e-02   2.99192e-03   2.99192e-03   
6.76724e+00   4.72100e-02   2.49205e-03   2.49205e-03   
7.41139e+00   3.97700e-02   2.09917e-03   2.09917e-03   
8.10563e+00   3.25100e-02   1.71517e-03   1.71517e-03   
8.85456e+00   2.71700e-02   1.43003e-03   1.43003e-03   
9.66360e+00   2.24700e-02   1.18148e-03   1.18148e-03   
1.05327e+01   1.85900e-02   9.81428e-04   9.81428e-04   
1.14804e+01   1.52300e-02   8.04425e-04   8.04425e-04   
1.24820e+01   1.26000e-02   6.62797e-04   6.62797e-04   
1.35299e+01   1.04600e-02   5.55428e-04   5.55428e-04   
1.46780e+01   8.55100e-03   4.51157e-04   4.51157e-04   
1.59262e+01   7.03600e-03   3.72195e-04   3.72195e-04   
1.72745e+01   5.75900e-03   3.04613e-04   3.04613e-04   
1.87230e+01   4.73500e-03   2.50480e-04   2.50480e-04   
2.02716e+01   3.91600e-03   2.07658e-04   2.07658e-04   
2.19204e+01   3.20000e-03   1.69272e-04   1.69272e-04   
2.37158e+01   2.62300e-03   1.39291e-04   1.39291e-04   
2.56650e+01   2.17100e-03   1.15078e-04   1.15078e-04   
2.77142e+01   1.79900e-03   9.58332e-05   9.58332e-05   
2.99103e+01   1.48700e-03   7.93914e-05   7.93914e-05   
3.22599e+01   1.23100e-03   6.58559e-05   6.58559e-05   
3.47563e+01   1.01200e-03   5.44243e-05   5.44243e-05   
3.74530e+01   8.44600e-04   4.51724e-05   4.51724e-05   
4.03499e+01   6.88700e-04   3.69146e-05   3.69146e-05   
4.34470e+01   5.68100e-04   3.05552e-05   3.05552e-05   
4.67444e+01   4.77600e-04   2.57787e-05   2.57787e-05   
5.02888e+01   3.95100e-04   2.13588e-05   2.13588e-05   
5.40868e+01   3.24500e-04   1.76448e-05   1.76448e-05   
5.81318e+01   2.60300e-04   1.41986e-05   1.41986e-05   
6.24772e+01   2.22500e-04   1.21454e-05   1.21454e-05   
6.71697e+01   1.81300e-04   9.96945e-06   9.96945e-06   
7.22158e+01   1.49300e-04   8.26499e-06   8.26499e-06   
7.76092e+01   1.23200e-04   6.81322e-06   6.81322e-06   
8.34030e+01   1.02500e-04   5.72626e-06   5.72626e-06   
8.96441e+01   8.45800e-05   4.75217e-06   4.75217e-06   
9.63857e+01   6.66500e-05   3.77565e-06   3.77565e-06   
1.03862e+02   5.72500e-05   3.25231e-06   3.25231e-06   
1.11871e+02   4.46900e-05   2.56698e-06   2.56698e-06   
1.20349e+02   3.82000e-05   2.21181e-06   2.21181e-06   
1.29827e+02   3.05900e-05   1.77823e-06   1.77823e-06   
1.40770e+02   2.34800e-05   1.37550e-06   1.37550e-06   
1.53252e+02   1.93400e-05   1.14495e-06   1.14495e-06   
1.67198e+02   1.56600e-05   9.34398e-07   9.34398e-07   
1.83146e+02   1.19900e-05   7.26842e-07   7.26842e-07   
2.01097e+02   9.19100e-06   5.67630e-07   5.67630e-07   
2.21509e+02   6.88000e-06   4.33532e-07   4.33532e-07   
2.45382e+02   5.59500e-06   3.56470e-07   3.56470e-07   
2.74162e+02   3.90700e-06   2.54855e-07   2.54855e-07   
3.09398e+02   2.75700e-06   1.85184e-07   1.85184e-07   
3.52976e+02   1.96000e-06   1.35842e-07   1.35842e-07   
4.07890e+02   1.38700e-06   9.97697e-08   9.97697e-08   
4.79711e+02   8.39700e-07   6.38892e-08   6.38892e-08   
5.85572e+02   5.29500e-07   4.23475e-08   4.23475e-08   
7.48143e+02   2.73200e-07   2.47055e-08   2.47055e-08   
1.00470e+03   1.14600e-07   1.24852e-08   1.24852e-08   
1.74791e+03   1.99900e-08   3.70128e-09   3.70128e-09   
